*Name: Bark Deciduous
Type: Beech bark
Particle Size: Solid
Wavelength Range: All

Origin: Remote Sensing Laboratories, University of Zurich

Description: beech bark spectrum

Measurement: Hemispherical Conical Reflectance Factor HCRF

First Column:  X Wavelength (micrometers)
Second Column:  Y Reflectance (percent)
First X Value: 0.354
Last X Value: 2.45
Number of X Values: 2097
Additional Information:  None*

*Number of Lambda pertinent values : *  2097
*Lambda_min - Lambda_max : *  0.354 2.45
*Hapke parameters : Bo - h - b1 - c1 - b2 - c2 *  1 1 1 1 1 1
*Lambda - Ro - Refraction index - A - Alpha - w_Hapke - A_Hapke_spec - Alpha_Hapke_spec - T_Direct - T_Diffus*
0.354	7.3475	1.4	1000	0.2	30	1000	0.2	0	0
0.355	7.3971	1.4	1000	0.2	30	1000	0.2	0	0
0.356	7.4438	1.4	1000	0.2	30	1000	0.2	0	0
0.357	7.4896	1.4	1000	0.2	30	1000	0.2	0	0
0.358	7.5369	1.4	1000	0.2	30	1000	0.2	0	0
0.359	7.5874	1.4	1000	0.2	30	1000	0.2	0	0
0.36	7.6414	1.4	1000	0.2	30	1000	0.2	0	0
0.361	7.6954	1.4	1000	0.2	30	1000	0.2	0	0
0.362	7.7504	1.4	1000	0.2	30	1000	0.2	0	0
0.363	7.8097	1.4	1000	0.2	30	1000	0.2	0	0
0.364	7.8694	1.4	1000	0.2	30	1000	0.2	0	0
0.365	7.9281	1.4	1000	0.2	30	1000	0.2	0	0
0.366	7.9856	1.4	1000	0.2	30	1000	0.2	0	0
0.367	8.0429	1.4	1000	0.2	30	1000	0.2	0	0
0.368	8.1021	1.4	1000	0.2	30	1000	0.2	0	0
0.369	8.1608	1.4	1000	0.2	30	1000	0.2	0	0
0.37	8.2177	1.4	1000	0.2	30	1000	0.2	0	0
0.371	8.2769	1.4	1000	0.2	30	1000	0.2	0	0
0.372	8.3387	1.4	1000	0.2	30	1000	0.2	0	0
0.373	8.4032	1.4	1000	0.2	30	1000	0.2	0	0
0.374	8.4698	1.4	1000	0.2	30	1000	0.2	0	0
0.375	8.5363	1.4	1000	0.2	30	1000	0.2	0	0
0.376	8.6042	1.4	1000	0.2	30	1000	0.2	0	0
0.377	8.6752	1.4	1000	0.2	30	1000	0.2	0	0
0.378	8.7472	1.4	1000	0.2	30	1000	0.2	0	0
0.379	8.8189	1.4	1000	0.2	30	1000	0.2	0	0
0.38	8.8903	1.4	1000	0.2	30	1000	0.2	0	0
0.381	8.9615	1.4	1000	0.2	30	1000	0.2	0	0
0.382	9.033	1.4	1000	0.2	30	1000	0.2	0	0
0.383	9.1049	1.4	1000	0.2	30	1000	0.2	0	0
0.384	9.1781	1.4	1000	0.2	30	1000	0.2	0	0
0.385	9.2541	1.4	1000	0.2	30	1000	0.2	0	0
0.386	9.3313	1.4	1000	0.2	30	1000	0.2	0	0
0.387	9.4081	1.4	1000	0.2	30	1000	0.2	0	0
0.388	9.4838	1.4	1000	0.2	30	1000	0.2	0	0
0.389	9.5595	1.4	1000	0.2	30	1000	0.2	0	0
0.39	9.6344	1.4	1000	0.2	30	1000	0.2	0	0
0.391	9.7065	1.4	1000	0.2	30	1000	0.2	0	0
0.392	9.7742	1.4	1000	0.2	30	1000	0.2	0	0
0.393	9.8423	1.4	1000	0.2	30	1000	0.2	0	0
0.394	9.9108	1.4	1000	0.2	30	1000	0.2	0	0
0.395	9.979	1.4	1000	0.2	30	1000	0.2	0	0
0.396	10.0462	1.4	1000	0.2	30	1000	0.2	0	0
0.397	10.1131	1.4	1000	0.2	30	1000	0.2	0	0
0.398	10.1791	1.4	1000	0.2	30	1000	0.2	0	0
0.399	10.2425	1.4	1000	0.2	30	1000	0.2	0	0
0.4	10.3009	1.4	1000	0.2	30	1000	0.2	0	0
0.401	10.3564	1.4	1000	0.2	30	1000	0.2	0	0
0.402	10.4101	1.4	1000	0.2	30	1000	0.2	0	0
0.403	10.4612	1.4	1000	0.2	30	1000	0.2	0	0
0.404	10.5097	1.4	1000	0.2	30	1000	0.2	0	0
0.405	10.5572	1.4	1000	0.2	30	1000	0.2	0	0
0.406	10.6055	1.4	1000	0.2	30	1000	0.2	0	0
0.407	10.6556	1.4	1000	0.2	30	1000	0.2	0	0
0.408	10.7058	1.4	1000	0.2	30	1000	0.2	0	0
0.409	10.7559	1.4	1000	0.2	30	1000	0.2	0	0
0.41	10.8075	1.4	1000	0.2	30	1000	0.2	0	0
0.411	10.86	1.4	1000	0.2	30	1000	0.2	0	0
0.412	10.9124	1.4	1000	0.2	30	1000	0.2	0	0
0.413	10.9635	1.4	1000	0.2	30	1000	0.2	0	0
0.414	11.0135	1.4	1000	0.2	30	1000	0.2	0	0
0.415	11.0633	1.4	1000	0.2	30	1000	0.2	0	0
0.416	11.1134	1.4	1000	0.2	30	1000	0.2	0	0
0.417	11.1634	1.4	1000	0.2	30	1000	0.2	0	0
0.418	11.2133	1.4	1000	0.2	30	1000	0.2	0	0
0.419	11.2639	1.4	1000	0.2	30	1000	0.2	0	0
0.42	11.3156	1.4	1000	0.2	30	1000	0.2	0	0
0.421	11.3678	1.4	1000	0.2	30	1000	0.2	0	0
0.422	11.4201	1.4	1000	0.2	30	1000	0.2	0	0
0.423	11.4723	1.4	1000	0.2	30	1000	0.2	0	0
0.424	11.525	1.4	1000	0.2	30	1000	0.2	0	0
0.425	11.5784	1.4	1000	0.2	30	1000	0.2	0	0
0.426	11.6327	1.4	1000	0.2	30	1000	0.2	0	0
0.427	11.688	1.4	1000	0.2	30	1000	0.2	0	0
0.428	11.7444	1.4	1000	0.2	30	1000	0.2	0	0
0.429	11.8023	1.4	1000	0.2	30	1000	0.2	0	0
0.43	11.8618	1.4	1000	0.2	30	1000	0.2	0	0
0.431	11.922	1.4	1000	0.2	30	1000	0.2	0	0
0.432	11.9826	1.4	1000	0.2	30	1000	0.2	0	0
0.433	12.0428	1.4	1000	0.2	30	1000	0.2	0	0
0.434	12.1019	1.4	1000	0.2	30	1000	0.2	0	0
0.435	12.1594	1.4	1000	0.2	30	1000	0.2	0	0
0.436	12.2158	1.4	1000	0.2	30	1000	0.2	0	0
0.437	12.2716	1.4	1000	0.2	30	1000	0.2	0	0
0.438	12.3264	1.4	1000	0.2	30	1000	0.2	0	0
0.439	12.3804	1.4	1000	0.2	30	1000	0.2	0	0
0.44	12.4341	1.4	1000	0.2	30	1000	0.2	0	0
0.441	12.4882	1.4	1000	0.2	30	1000	0.2	0	0
0.442	12.5423	1.4	1000	0.2	30	1000	0.2	0	0
0.443	12.5956	1.4	1000	0.2	30	1000	0.2	0	0
0.444	12.6477	1.4	1000	0.2	30	1000	0.2	0	0
0.445	12.699	1.4	1000	0.2	30	1000	0.2	0	0
0.446	12.7494	1.4	1000	0.2	30	1000	0.2	0	0
0.447	12.7984	1.4	1000	0.2	30	1000	0.2	0	0
0.448	12.8461	1.4	1000	0.2	30	1000	0.2	0	0
0.449	12.8925	1.4	1000	0.2	30	1000	0.2	0	0
0.45	12.9378	1.4	1000	0.2	30	1000	0.2	0	0
0.451	12.9819	1.4	1000	0.2	30	1000	0.2	0	0
0.452	13.0244	1.4	1000	0.2	30	1000	0.2	0	0
0.453	13.0656	1.4	1000	0.2	30	1000	0.2	0	0
0.454	13.106	1.4	1000	0.2	30	1000	0.2	0	0
0.455	13.1453	1.4	1000	0.2	30	1000	0.2	0	0
0.456	13.1835	1.4	1000	0.2	30	1000	0.2	0	0
0.457	13.2202	1.4	1000	0.2	30	1000	0.2	0	0
0.458	13.2554	1.4	1000	0.2	30	1000	0.2	0	0
0.459	13.2895	1.4	1000	0.2	30	1000	0.2	0	0
0.46	13.3221	1.4	1000	0.2	30	1000	0.2	0	0
0.461	13.3532	1.4	1000	0.2	30	1000	0.2	0	0
0.462	13.3832	1.4	1000	0.2	30	1000	0.2	0	0
0.463	13.4125	1.4	1000	0.2	30	1000	0.2	0	0
0.464	13.4413	1.4	1000	0.2	30	1000	0.2	0	0
0.465	13.4697	1.4	1000	0.2	30	1000	0.2	0	0
0.466	13.4983	1.4	1000	0.2	30	1000	0.2	0	0
0.467	13.5269	1.4	1000	0.2	30	1000	0.2	0	0
0.468	13.5552	1.4	1000	0.2	30	1000	0.2	0	0
0.469	13.5832	1.4	1000	0.2	30	1000	0.2	0	0
0.47	13.611	1.4	1000	0.2	30	1000	0.2	0	0
0.471	13.6387	1.4	1000	0.2	30	1000	0.2	0	0
0.472	13.6664	1.4	1000	0.2	30	1000	0.2	0	0
0.473	13.6939	1.4	1000	0.2	30	1000	0.2	0	0
0.474	13.7212	1.4	1000	0.2	30	1000	0.2	0	0
0.475	13.7491	1.4	1000	0.2	30	1000	0.2	0	0
0.476	13.7773	1.4	1000	0.2	30	1000	0.2	0	0
0.477	13.806	1.4	1000	0.2	30	1000	0.2	0	0
0.478	13.8353	1.4	1000	0.2	30	1000	0.2	0	0
0.479	13.8651	1.4	1000	0.2	30	1000	0.2	0	0
0.48	13.8962	1.4	1000	0.2	30	1000	0.2	0	0
0.481	13.9286	1.4	1000	0.2	30	1000	0.2	0	0
0.482	13.9618	1.4	1000	0.2	30	1000	0.2	0	0
0.483	13.9971	1.4	1000	0.2	30	1000	0.2	0	0
0.484	14.0346	1.4	1000	0.2	30	1000	0.2	0	0
0.485	14.074	1.4	1000	0.2	30	1000	0.2	0	0
0.486	14.1154	1.4	1000	0.2	30	1000	0.2	0	0
0.487	14.1584	1.4	1000	0.2	30	1000	0.2	0	0
0.488	14.2027	1.4	1000	0.2	30	1000	0.2	0	0
0.489	14.2484	1.4	1000	0.2	30	1000	0.2	0	0
0.49	14.2945	1.4	1000	0.2	30	1000	0.2	0	0
0.491	14.3414	1.4	1000	0.2	30	1000	0.2	0	0
0.492	14.3899	1.4	1000	0.2	30	1000	0.2	0	0
0.493	14.4395	1.4	1000	0.2	30	1000	0.2	0	0
0.494	14.4903	1.4	1000	0.2	30	1000	0.2	0	0
0.495	14.5428	1.4	1000	0.2	30	1000	0.2	0	0
0.496	14.5976	1.4	1000	0.2	30	1000	0.2	0	0
0.497	14.6546	1.4	1000	0.2	30	1000	0.2	0	0
0.498	14.7138	1.4	1000	0.2	30	1000	0.2	0	0
0.499	14.7746	1.4	1000	0.2	30	1000	0.2	0	0
0.5	14.8378	1.4	1000	0.2	30	1000	0.2	0	0
0.501	14.9032	1.4	1000	0.2	30	1000	0.2	0	0
0.502	14.9701	1.4	1000	0.2	30	1000	0.2	0	0
0.503	15.0387	1.4	1000	0.2	30	1000	0.2	0	0
0.504	15.1086	1.4	1000	0.2	30	1000	0.2	0	0
0.505	15.1798	1.4	1000	0.2	30	1000	0.2	0	0
0.506	15.2521	1.4	1000	0.2	30	1000	0.2	0	0
0.507	15.3257	1.4	1000	0.2	30	1000	0.2	0	0
0.508	15.4007	1.4	1000	0.2	30	1000	0.2	0	0
0.509	15.4773	1.4	1000	0.2	30	1000	0.2	0	0
0.51	15.5552	1.4	1000	0.2	30	1000	0.2	0	0
0.511	15.6346	1.4	1000	0.2	30	1000	0.2	0	0
0.512	15.716	1.4	1000	0.2	30	1000	0.2	0	0
0.513	15.7994	1.4	1000	0.2	30	1000	0.2	0	0
0.514	15.8845	1.4	1000	0.2	30	1000	0.2	0	0
0.515	15.9711	1.4	1000	0.2	30	1000	0.2	0	0
0.516	16.059	1.4	1000	0.2	30	1000	0.2	0	0
0.517	16.1479	1.4	1000	0.2	30	1000	0.2	0	0
0.518	16.2371	1.4	1000	0.2	30	1000	0.2	0	0
0.519	16.325	1.4	1000	0.2	30	1000	0.2	0	0
0.52	16.4112	1.4	1000	0.2	30	1000	0.2	0	0
0.521	16.4959	1.4	1000	0.2	30	1000	0.2	0	0
0.522	16.5789	1.4	1000	0.2	30	1000	0.2	0	0
0.523	16.6606	1.4	1000	0.2	30	1000	0.2	0	0
0.524	16.741	1.4	1000	0.2	30	1000	0.2	0	0
0.525	16.8206	1.4	1000	0.2	30	1000	0.2	0	0
0.526	16.9	1.4	1000	0.2	30	1000	0.2	0	0
0.527	16.9785	1.4	1000	0.2	30	1000	0.2	0	0
0.528	17.0558	1.4	1000	0.2	30	1000	0.2	0	0
0.529	17.1317	1.4	1000	0.2	30	1000	0.2	0	0
0.53	17.206	1.4	1000	0.2	30	1000	0.2	0	0
0.531	17.279	1.4	1000	0.2	30	1000	0.2	0	0
0.532	17.3509	1.4	1000	0.2	30	1000	0.2	0	0
0.533	17.4214	1.4	1000	0.2	30	1000	0.2	0	0
0.534	17.4908	1.4	1000	0.2	30	1000	0.2	0	0
0.535	17.5594	1.4	1000	0.2	30	1000	0.2	0	0
0.536	17.6272	1.4	1000	0.2	30	1000	0.2	0	0
0.537	17.6945	1.4	1000	0.2	30	1000	0.2	0	0
0.538	17.7613	1.4	1000	0.2	30	1000	0.2	0	0
0.539	17.827	1.4	1000	0.2	30	1000	0.2	0	0
0.54	17.8922	1.4	1000	0.2	30	1000	0.2	0	0
0.541	17.957	1.4	1000	0.2	30	1000	0.2	0	0
0.542	18.021	1.4	1000	0.2	30	1000	0.2	0	0
0.543	18.0843	1.4	1000	0.2	30	1000	0.2	0	0
0.544	18.1468	1.4	1000	0.2	30	1000	0.2	0	0
0.545	18.2084	1.4	1000	0.2	30	1000	0.2	0	0
0.546	18.2695	1.4	1000	0.2	30	1000	0.2	0	0
0.547	18.33	1.4	1000	0.2	30	1000	0.2	0	0
0.548	18.39	1.4	1000	0.2	30	1000	0.2	0	0
0.549	18.4494	1.4	1000	0.2	30	1000	0.2	0	0
0.55	18.5084	1.4	1000	0.2	30	1000	0.2	0	0
0.551	18.5666	1.4	1000	0.2	30	1000	0.2	0	0
0.552	18.6238	1.4	1000	0.2	30	1000	0.2	0	0
0.553	18.6799	1.4	1000	0.2	30	1000	0.2	0	0
0.554	18.7347	1.4	1000	0.2	30	1000	0.2	0	0
0.555	18.7883	1.4	1000	0.2	30	1000	0.2	0	0
0.556	18.8407	1.4	1000	0.2	30	1000	0.2	0	0
0.557	18.8915	1.4	1000	0.2	30	1000	0.2	0	0
0.558	18.9405	1.4	1000	0.2	30	1000	0.2	0	0
0.559	18.987	1.4	1000	0.2	30	1000	0.2	0	0
0.56	19.031	1.4	1000	0.2	30	1000	0.2	0	0
0.561	19.0727	1.4	1000	0.2	30	1000	0.2	0	0
0.562	19.1117	1.4	1000	0.2	30	1000	0.2	0	0
0.563	19.1482	1.4	1000	0.2	30	1000	0.2	0	0
0.564	19.1821	1.4	1000	0.2	30	1000	0.2	0	0
0.565	19.2133	1.4	1000	0.2	30	1000	0.2	0	0
0.566	19.2425	1.4	1000	0.2	30	1000	0.2	0	0
0.567	19.2699	1.4	1000	0.2	30	1000	0.2	0	0
0.568	19.2954	1.4	1000	0.2	30	1000	0.2	0	0
0.569	19.3191	1.4	1000	0.2	30	1000	0.2	0	0
0.57	19.3411	1.4	1000	0.2	30	1000	0.2	0	0
0.571	19.362	1.4	1000	0.2	30	1000	0.2	0	0
0.572	19.3818	1.4	1000	0.2	30	1000	0.2	0	0
0.573	19.4009	1.4	1000	0.2	30	1000	0.2	0	0
0.574	19.4196	1.4	1000	0.2	30	1000	0.2	0	0
0.575	19.4379	1.4	1000	0.2	30	1000	0.2	0	0
0.576	19.4559	1.4	1000	0.2	30	1000	0.2	0	0
0.577	19.4738	1.4	1000	0.2	30	1000	0.2	0	0
0.578	19.4913	1.4	1000	0.2	30	1000	0.2	0	0
0.579	19.5086	1.4	1000	0.2	30	1000	0.2	0	0
0.58	19.5255	1.4	1000	0.2	30	1000	0.2	0	0
0.581	19.5417	1.4	1000	0.2	30	1000	0.2	0	0
0.582	19.5574	1.4	1000	0.2	30	1000	0.2	0	0
0.583	19.573	1.4	1000	0.2	30	1000	0.2	0	0
0.584	19.5884	1.4	1000	0.2	30	1000	0.2	0	0
0.585	19.604	1.4	1000	0.2	30	1000	0.2	0	0
0.586	19.6202	1.4	1000	0.2	30	1000	0.2	0	0
0.587	19.6373	1.4	1000	0.2	30	1000	0.2	0	0
0.588	19.655	1.4	1000	0.2	30	1000	0.2	0	0
0.589	19.6729	1.4	1000	0.2	30	1000	0.2	0	0
0.59	19.6907	1.4	1000	0.2	30	1000	0.2	0	0
0.591	19.7084	1.4	1000	0.2	30	1000	0.2	0	0
0.592	19.7261	1.4	1000	0.2	30	1000	0.2	0	0
0.593	19.7433	1.4	1000	0.2	30	1000	0.2	0	0
0.594	19.7597	1.4	1000	0.2	30	1000	0.2	0	0
0.595	19.7757	1.4	1000	0.2	30	1000	0.2	0	0
0.596	19.7916	1.4	1000	0.2	30	1000	0.2	0	0
0.597	19.8076	1.4	1000	0.2	30	1000	0.2	0	0
0.598	19.8232	1.4	1000	0.2	30	1000	0.2	0	0
0.599	19.838	1.4	1000	0.2	30	1000	0.2	0	0
0.6	19.8518	1.4	1000	0.2	30	1000	0.2	0	0
0.601	19.8647	1.4	1000	0.2	30	1000	0.2	0	0
0.602	19.8767	1.4	1000	0.2	30	1000	0.2	0	0
0.603	19.8877	1.4	1000	0.2	30	1000	0.2	0	0
0.604	19.8978	1.4	1000	0.2	30	1000	0.2	0	0
0.605	19.9074	1.4	1000	0.2	30	1000	0.2	0	0
0.606	19.9163	1.4	1000	0.2	30	1000	0.2	0	0
0.607	19.9247	1.4	1000	0.2	30	1000	0.2	0	0
0.608	19.9323	1.4	1000	0.2	30	1000	0.2	0	0
0.609	19.939	1.4	1000	0.2	30	1000	0.2	0	0
0.61	19.9443	1.4	1000	0.2	30	1000	0.2	0	0
0.611	19.9478	1.4	1000	0.2	30	1000	0.2	0	0
0.612	19.9497	1.4	1000	0.2	30	1000	0.2	0	0
0.613	19.9502	1.4	1000	0.2	30	1000	0.2	0	0
0.614	19.9495	1.4	1000	0.2	30	1000	0.2	0	0
0.615	19.9477	1.4	1000	0.2	30	1000	0.2	0	0
0.616	19.9452	1.4	1000	0.2	30	1000	0.2	0	0
0.617	19.9421	1.4	1000	0.2	30	1000	0.2	0	0
0.618	19.9395	1.4	1000	0.2	30	1000	0.2	0	0
0.619	19.9382	1.4	1000	0.2	30	1000	0.2	0	0
0.62	19.9385	1.4	1000	0.2	30	1000	0.2	0	0
0.621	19.9415	1.4	1000	0.2	30	1000	0.2	0	0
0.622	19.9474	1.4	1000	0.2	30	1000	0.2	0	0
0.623	19.9561	1.4	1000	0.2	30	1000	0.2	0	0
0.624	19.9681	1.4	1000	0.2	30	1000	0.2	0	0
0.625	19.9829	1.4	1000	0.2	30	1000	0.2	0	0
0.626	20.0001	1.4	1000	0.2	30	1000	0.2	0	0
0.627	20.0194	1.4	1000	0.2	30	1000	0.2	0	0
0.628	20.0398	1.4	1000	0.2	30	1000	0.2	0	0
0.629	20.0605	1.4	1000	0.2	30	1000	0.2	0	0
0.63	20.0808	1.4	1000	0.2	30	1000	0.2	0	0
0.631	20.1005	1.4	1000	0.2	30	1000	0.2	0	0
0.632	20.1189	1.4	1000	0.2	30	1000	0.2	0	0
0.633	20.1349	1.4	1000	0.2	30	1000	0.2	0	0
0.634	20.1473	1.4	1000	0.2	30	1000	0.2	0	0
0.635	20.1552	1.4	1000	0.2	30	1000	0.2	0	0
0.636	20.1585	1.4	1000	0.2	30	1000	0.2	0	0
0.637	20.1575	1.4	1000	0.2	30	1000	0.2	0	0
0.638	20.1516	1.4	1000	0.2	30	1000	0.2	0	0
0.639	20.1408	1.4	1000	0.2	30	1000	0.2	0	0
0.64	20.1255	1.4	1000	0.2	30	1000	0.2	0	0
0.641	20.1066	1.4	1000	0.2	30	1000	0.2	0	0
0.642	20.0847	1.4	1000	0.2	30	1000	0.2	0	0
0.643	20.0607	1.4	1000	0.2	30	1000	0.2	0	0
0.644	20.0358	1.4	1000	0.2	30	1000	0.2	0	0
0.645	20.0112	1.4	1000	0.2	30	1000	0.2	0	0
0.646	19.9886	1.4	1000	0.2	30	1000	0.2	0	0
0.647	19.9688	1.4	1000	0.2	30	1000	0.2	0	0
0.648	19.9533	1.4	1000	0.2	30	1000	0.2	0	0
0.649	19.9432	1.4	1000	0.2	30	1000	0.2	0	0
0.65	19.939	1.4	1000	0.2	30	1000	0.2	0	0
0.651	19.9404	1.4	1000	0.2	30	1000	0.2	0	0
0.652	19.9465	1.4	1000	0.2	30	1000	0.2	0	0
0.653	19.9554	1.4	1000	0.2	30	1000	0.2	0	0
0.654	19.9646	1.4	1000	0.2	30	1000	0.2	0	0
0.655	19.9714	1.4	1000	0.2	30	1000	0.2	0	0
0.656	19.9731	1.4	1000	0.2	30	1000	0.2	0	0
0.657	19.9687	1.4	1000	0.2	30	1000	0.2	0	0
0.658	19.9574	1.4	1000	0.2	30	1000	0.2	0	0
0.659	19.939	1.4	1000	0.2	30	1000	0.2	0	0
0.66	19.9142	1.4	1000	0.2	30	1000	0.2	0	0
0.661	19.8847	1.4	1000	0.2	30	1000	0.2	0	0
0.662	19.8525	1.4	1000	0.2	30	1000	0.2	0	0
0.663	19.8201	1.4	1000	0.2	30	1000	0.2	0	0
0.664	19.7887	1.4	1000	0.2	30	1000	0.2	0	0
0.665	19.7589	1.4	1000	0.2	30	1000	0.2	0	0
0.666	19.7321	1.4	1000	0.2	30	1000	0.2	0	0
0.667	19.7093	1.4	1000	0.2	30	1000	0.2	0	0
0.668	19.6916	1.4	1000	0.2	30	1000	0.2	0	0
0.669	19.6796	1.4	1000	0.2	30	1000	0.2	0	0
0.67	19.6733	1.4	1000	0.2	30	1000	0.2	0	0
0.671	19.6727	1.4	1000	0.2	30	1000	0.2	0	0
0.672	19.6783	1.4	1000	0.2	30	1000	0.2	0	0
0.673	19.6895	1.4	1000	0.2	30	1000	0.2	0	0
0.674	19.7058	1.4	1000	0.2	30	1000	0.2	0	0
0.675	19.727	1.4	1000	0.2	30	1000	0.2	0	0
0.676	19.7527	1.4	1000	0.2	30	1000	0.2	0	0
0.677	19.7834	1.4	1000	0.2	30	1000	0.2	0	0
0.678	19.8197	1.4	1000	0.2	30	1000	0.2	0	0
0.679	19.8623	1.4	1000	0.2	30	1000	0.2	0	0
0.68	19.9136	1.4	1000	0.2	30	1000	0.2	0	0
0.681	19.9759	1.4	1000	0.2	30	1000	0.2	0	0
0.682	20.0514	1.4	1000	0.2	30	1000	0.2	0	0
0.683	20.1447	1.4	1000	0.2	30	1000	0.2	0	0
0.684	20.2599	1.4	1000	0.2	30	1000	0.2	0	0
0.685	20.3978	1.4	1000	0.2	30	1000	0.2	0	0
0.686	20.5569	1.4	1000	0.2	30	1000	0.2	0	0
0.687	20.7348	1.4	1000	0.2	30	1000	0.2	0	0
0.688	20.9306	1.4	1000	0.2	30	1000	0.2	0	0
0.689	21.1436	1.4	1000	0.2	30	1000	0.2	0	0
0.69	21.3708	1.4	1000	0.2	30	1000	0.2	0	0
0.691	21.6077	1.4	1000	0.2	30	1000	0.2	0	0
0.692	21.852	1.4	1000	0.2	30	1000	0.2	0	0
0.693	22.1015	1.4	1000	0.2	30	1000	0.2	0	0
0.694	22.3547	1.4	1000	0.2	30	1000	0.2	0	0
0.695	22.6092	1.4	1000	0.2	30	1000	0.2	0	0
0.696	22.8629	1.4	1000	0.2	30	1000	0.2	0	0
0.697	23.1135	1.4	1000	0.2	30	1000	0.2	0	0
0.698	23.3587	1.4	1000	0.2	30	1000	0.2	0	0
0.699	23.5972	1.4	1000	0.2	30	1000	0.2	0	0
0.7	23.8289	1.4	1000	0.2	30	1000	0.2	0	0
0.701	24.0534	1.4	1000	0.2	30	1000	0.2	0	0
0.702	24.2702	1.4	1000	0.2	30	1000	0.2	0	0
0.703	24.4781	1.4	1000	0.2	30	1000	0.2	0	0
0.704	24.6761	1.4	1000	0.2	30	1000	0.2	0	0
0.705	24.8646	1.4	1000	0.2	30	1000	0.2	0	0
0.706	25.0438	1.4	1000	0.2	30	1000	0.2	0	0
0.707	25.2147	1.4	1000	0.2	30	1000	0.2	0	0
0.708	25.3778	1.4	1000	0.2	30	1000	0.2	0	0
0.709	25.5333	1.4	1000	0.2	30	1000	0.2	0	0
0.71	25.6816	1.4	1000	0.2	30	1000	0.2	0	0
0.711	25.8231	1.4	1000	0.2	30	1000	0.2	0	0
0.712	25.9587	1.4	1000	0.2	30	1000	0.2	0	0
0.713	26.0897	1.4	1000	0.2	30	1000	0.2	0	0
0.714	26.2187	1.4	1000	0.2	30	1000	0.2	0	0
0.715	26.3472	1.4	1000	0.2	30	1000	0.2	0	0
0.716	26.4743	1.4	1000	0.2	30	1000	0.2	0	0
0.717	26.5964	1.4	1000	0.2	30	1000	0.2	0	0
0.718	26.711	1.4	1000	0.2	30	1000	0.2	0	0
0.719	26.8178	1.4	1000	0.2	30	1000	0.2	0	0
0.72	26.9183	1.4	1000	0.2	30	1000	0.2	0	0
0.721	27.0135	1.4	1000	0.2	30	1000	0.2	0	0
0.722	27.1023	1.4	1000	0.2	30	1000	0.2	0	0
0.723	27.1849	1.4	1000	0.2	30	1000	0.2	0	0
0.724	27.2647	1.4	1000	0.2	30	1000	0.2	0	0
0.725	27.3445	1.4	1000	0.2	30	1000	0.2	0	0
0.726	27.4248	1.4	1000	0.2	30	1000	0.2	0	0
0.727	27.5036	1.4	1000	0.2	30	1000	0.2	0	0
0.728	27.5777	1.4	1000	0.2	30	1000	0.2	0	0
0.729	27.6466	1.4	1000	0.2	30	1000	0.2	0	0
0.73	27.7117	1.4	1000	0.2	30	1000	0.2	0	0
0.731	27.7741	1.4	1000	0.2	30	1000	0.2	0	0
0.732	27.8348	1.4	1000	0.2	30	1000	0.2	0	0
0.733	27.8946	1.4	1000	0.2	30	1000	0.2	0	0
0.734	27.9534	1.4	1000	0.2	30	1000	0.2	0	0
0.735	28.0122	1.4	1000	0.2	30	1000	0.2	0	0
0.736	28.0717	1.4	1000	0.2	30	1000	0.2	0	0
0.737	28.1322	1.4	1000	0.2	30	1000	0.2	0	0
0.738	28.193	1.4	1000	0.2	30	1000	0.2	0	0
0.739	28.2535	1.4	1000	0.2	30	1000	0.2	0	0
0.74	28.313	1.4	1000	0.2	30	1000	0.2	0	0
0.741	28.3716	1.4	1000	0.2	30	1000	0.2	0	0
0.742	28.4295	1.4	1000	0.2	30	1000	0.2	0	0
0.743	28.487	1.4	1000	0.2	30	1000	0.2	0	0
0.744	28.5446	1.4	1000	0.2	30	1000	0.2	0	0
0.745	28.6023	1.4	1000	0.2	30	1000	0.2	0	0
0.746	28.6601	1.4	1000	0.2	30	1000	0.2	0	0
0.747	28.7182	1.4	1000	0.2	30	1000	0.2	0	0
0.748	28.7766	1.4	1000	0.2	30	1000	0.2	0	0
0.749	28.8349	1.4	1000	0.2	30	1000	0.2	0	0
0.75	28.8929	1.4	1000	0.2	30	1000	0.2	0	0
0.751	28.9505	1.4	1000	0.2	30	1000	0.2	0	0
0.752	29.0077	1.4	1000	0.2	30	1000	0.2	0	0
0.753	29.0647	1.4	1000	0.2	30	1000	0.2	0	0
0.754	29.1223	1.4	1000	0.2	30	1000	0.2	0	0
0.755	29.1817	1.4	1000	0.2	30	1000	0.2	0	0
0.756	29.2479	1.4	1000	0.2	30	1000	0.2	0	0
0.757	29.3352	1.4	1000	0.2	30	1000	0.2	0	0
0.758	29.4432	1.4	1000	0.2	30	1000	0.2	0	0
0.759	29.5454	1.4	1000	0.2	30	1000	0.2	0	0
0.76	29.6409	1.4	1000	0.2	30	1000	0.2	0	0
0.761	29.7283	1.4	1000	0.2	30	1000	0.2	0	0
0.762	29.8062	1.4	1000	0.2	30	1000	0.2	0	0
0.763	29.8695	1.4	1000	0.2	30	1000	0.2	0	0
0.764	29.9058	1.4	1000	0.2	30	1000	0.2	0	0
0.765	29.9178	1.4	1000	0.2	30	1000	0.2	0	0
0.766	29.9338	1.4	1000	0.2	30	1000	0.2	0	0
0.767	29.9557	1.4	1000	0.2	30	1000	0.2	0	0
0.768	29.9846	1.4	1000	0.2	30	1000	0.2	0	0
0.769	30.021	1.4	1000	0.2	30	1000	0.2	0	0
0.77	30.0654	1.4	1000	0.2	30	1000	0.2	0	0
0.771	30.1159	1.4	1000	0.2	30	1000	0.2	0	0
0.772	30.1703	1.4	1000	0.2	30	1000	0.2	0	0
0.773	30.2268	1.4	1000	0.2	30	1000	0.2	0	0
0.774	30.2844	1.4	1000	0.2	30	1000	0.2	0	0
0.775	30.3429	1.4	1000	0.2	30	1000	0.2	0	0
0.776	30.402	1.4	1000	0.2	30	1000	0.2	0	0
0.777	30.4614	1.4	1000	0.2	30	1000	0.2	0	0
0.778	30.521	1.4	1000	0.2	30	1000	0.2	0	0
0.779	30.5809	1.4	1000	0.2	30	1000	0.2	0	0
0.78	30.6413	1.4	1000	0.2	30	1000	0.2	0	0
0.781	30.702	1.4	1000	0.2	30	1000	0.2	0	0
0.782	30.7628	1.4	1000	0.2	30	1000	0.2	0	0
0.783	30.8238	1.4	1000	0.2	30	1000	0.2	0	0
0.784	30.8855	1.4	1000	0.2	30	1000	0.2	0	0
0.785	30.9481	1.4	1000	0.2	30	1000	0.2	0	0
0.786	31.0115	1.4	1000	0.2	30	1000	0.2	0	0
0.787	31.0752	1.4	1000	0.2	30	1000	0.2	0	0
0.788	31.1388	1.4	1000	0.2	30	1000	0.2	0	0
0.789	31.2026	1.4	1000	0.2	30	1000	0.2	0	0
0.79	31.2664	1.4	1000	0.2	30	1000	0.2	0	0
0.791	31.3299	1.4	1000	0.2	30	1000	0.2	0	0
0.792	31.393	1.4	1000	0.2	30	1000	0.2	0	0
0.793	31.4561	1.4	1000	0.2	30	1000	0.2	0	0
0.794	31.5189	1.4	1000	0.2	30	1000	0.2	0	0
