*Name: Litter
Type: Mainly leaf litter, 15% needle litter
Particle Size: Solid
Wavelength Range: All

Origin: Remote Sensing Laboratories, University of Zurich

Description: linear spectral mix of 85% leaf litter and 15% needle litter

Measurement: Hemispherical Conical Reflectance Factor HCRF

First Column:  X Wavelength (micrometers)
Second Column:  Y Reflectance (percent)
First X Value: 0.354
Last X Value: 2.45
Number of X Values: 2097
Additional Information:  None*

*Number of Lambda pertinent values : *  2097
*Lambda_min - Lambda_max : *  0.354 2.45
*Hapke parameters : Bo - h - b1 - c1 - b2 - c2 *  1 1 1 1 1 1
*Lambda - Ro - Refraction index - A - Alpha - w_Hapke - A_Hapke_spec - Alpha_Hapke_spec - T_Direct - T_Diffus*
0.354	2.6131	1.4	1000	0.2	30	1000	0.2	0	0
0.355	2.6216	1.4	1000	0.2	30	1000	0.2	0	0
0.356	2.6295	1.4	1000	0.2	30	1000	0.2	0	0
0.357	2.6374	1.4	1000	0.2	30	1000	0.2	0	0
0.358	2.6468	1.4	1000	0.2	30	1000	0.2	0	0
0.359	2.658	1.4	1000	0.2	30	1000	0.2	0	0
0.36	2.6686	1.4	1000	0.2	30	1000	0.2	0	0
0.361	2.6781	1.4	1000	0.2	30	1000	0.2	0	0
0.362	2.6874	1.4	1000	0.2	30	1000	0.2	0	0
0.363	2.6976	1.4	1000	0.2	30	1000	0.2	0	0
0.364	2.7084	1.4	1000	0.2	30	1000	0.2	0	0
0.365	2.7188	1.4	1000	0.2	30	1000	0.2	0	0
0.366	2.7287	1.4	1000	0.2	30	1000	0.2	0	0
0.367	2.7388	1.4	1000	0.2	30	1000	0.2	0	0
0.368	2.7493	1.4	1000	0.2	30	1000	0.2	0	0
0.369	2.7592	1.4	1000	0.2	30	1000	0.2	0	0
0.37	2.7681	1.4	1000	0.2	30	1000	0.2	0	0
0.371	2.7772	1.4	1000	0.2	30	1000	0.2	0	0
0.372	2.789	1.4	1000	0.2	30	1000	0.2	0	0
0.373	2.8022	1.4	1000	0.2	30	1000	0.2	0	0
0.374	2.8145	1.4	1000	0.2	30	1000	0.2	0	0
0.375	2.8279	1.4	1000	0.2	30	1000	0.2	0	0
0.376	2.8418	1.4	1000	0.2	30	1000	0.2	0	0
0.377	2.8557	1.4	1000	0.2	30	1000	0.2	0	0
0.378	2.8705	1.4	1000	0.2	30	1000	0.2	0	0
0.379	2.8848	1.4	1000	0.2	30	1000	0.2	0	0
0.38	2.8985	1.4	1000	0.2	30	1000	0.2	0	0
0.381	2.9128	1.4	1000	0.2	30	1000	0.2	0	0
0.382	2.9277	1.4	1000	0.2	30	1000	0.2	0	0
0.383	2.9449	1.4	1000	0.2	30	1000	0.2	0	0
0.384	2.9647	1.4	1000	0.2	30	1000	0.2	0	0
0.385	2.9846	1.4	1000	0.2	30	1000	0.2	0	0
0.386	3.0019	1.4	1000	0.2	30	1000	0.2	0	0
0.387	3.019	1.4	1000	0.2	30	1000	0.2	0	0
0.388	3.0379	1.4	1000	0.2	30	1000	0.2	0	0
0.389	3.0552	1.4	1000	0.2	30	1000	0.2	0	0
0.39	3.0723	1.4	1000	0.2	30	1000	0.2	0	0
0.391	3.0892	1.4	1000	0.2	30	1000	0.2	0	0
0.392	3.105	1.4	1000	0.2	30	1000	0.2	0	0
0.393	3.1217	1.4	1000	0.2	30	1000	0.2	0	0
0.394	3.1384	1.4	1000	0.2	30	1000	0.2	0	0
0.395	3.1544	1.4	1000	0.2	30	1000	0.2	0	0
0.396	3.1716	1.4	1000	0.2	30	1000	0.2	0	0
0.397	3.1872	1.4	1000	0.2	30	1000	0.2	0	0
0.398	3.2007	1.4	1000	0.2	30	1000	0.2	0	0
0.399	3.2136	1.4	1000	0.2	30	1000	0.2	0	0
0.4	3.2267	1.4	1000	0.2	30	1000	0.2	0	0
0.401	3.2395	1.4	1000	0.2	30	1000	0.2	0	0
0.402	3.2516	1.4	1000	0.2	30	1000	0.2	0	0
0.403	3.2635	1.4	1000	0.2	30	1000	0.2	0	0
0.404	3.2758	1.4	1000	0.2	30	1000	0.2	0	0
0.405	3.2893	1.4	1000	0.2	30	1000	0.2	0	0
0.406	3.3043	1.4	1000	0.2	30	1000	0.2	0	0
0.407	3.3189	1.4	1000	0.2	30	1000	0.2	0	0
0.408	3.3342	1.4	1000	0.2	30	1000	0.2	0	0
0.409	3.3507	1.4	1000	0.2	30	1000	0.2	0	0
0.41	3.3673	1.4	1000	0.2	30	1000	0.2	0	0
0.411	3.384	1.4	1000	0.2	30	1000	0.2	0	0
0.412	3.4007	1.4	1000	0.2	30	1000	0.2	0	0
0.413	3.4173	1.4	1000	0.2	30	1000	0.2	0	0
0.414	3.4343	1.4	1000	0.2	30	1000	0.2	0	0
0.415	3.4513	1.4	1000	0.2	30	1000	0.2	0	0
0.416	3.4679	1.4	1000	0.2	30	1000	0.2	0	0
0.417	3.4847	1.4	1000	0.2	30	1000	0.2	0	0
0.418	3.5019	1.4	1000	0.2	30	1000	0.2	0	0
0.419	3.5191	1.4	1000	0.2	30	1000	0.2	0	0
0.42	3.5362	1.4	1000	0.2	30	1000	0.2	0	0
0.421	3.5537	1.4	1000	0.2	30	1000	0.2	0	0
0.422	3.5714	1.4	1000	0.2	30	1000	0.2	0	0
0.423	3.5892	1.4	1000	0.2	30	1000	0.2	0	0
0.424	3.607	1.4	1000	0.2	30	1000	0.2	0	0
0.425	3.6251	1.4	1000	0.2	30	1000	0.2	0	0
0.426	3.6438	1.4	1000	0.2	30	1000	0.2	0	0
0.427	3.6629	1.4	1000	0.2	30	1000	0.2	0	0
0.428	3.6817	1.4	1000	0.2	30	1000	0.2	0	0
0.429	3.7006	1.4	1000	0.2	30	1000	0.2	0	0
0.43	3.7196	1.4	1000	0.2	30	1000	0.2	0	0
0.431	3.7386	1.4	1000	0.2	30	1000	0.2	0	0
0.432	3.7569	1.4	1000	0.2	30	1000	0.2	0	0
0.433	3.7744	1.4	1000	0.2	30	1000	0.2	0	0
0.434	3.7911	1.4	1000	0.2	30	1000	0.2	0	0
0.435	3.8076	1.4	1000	0.2	30	1000	0.2	0	0
0.436	3.8236	1.4	1000	0.2	30	1000	0.2	0	0
0.437	3.8393	1.4	1000	0.2	30	1000	0.2	0	0
0.438	3.8551	1.4	1000	0.2	30	1000	0.2	0	0
0.439	3.8707	1.4	1000	0.2	30	1000	0.2	0	0
0.44	3.8862	1.4	1000	0.2	30	1000	0.2	0	0
0.441	3.9023	1.4	1000	0.2	30	1000	0.2	0	0
0.442	3.9184	1.4	1000	0.2	30	1000	0.2	0	0
0.443	3.9344	1.4	1000	0.2	30	1000	0.2	0	0
0.444	3.9505	1.4	1000	0.2	30	1000	0.2	0	0
0.445	3.9668	1.4	1000	0.2	30	1000	0.2	0	0
0.446	3.9831	1.4	1000	0.2	30	1000	0.2	0	0
0.447	3.9994	1.4	1000	0.2	30	1000	0.2	0	0
0.448	4.0159	1.4	1000	0.2	30	1000	0.2	0	0
0.449	4.0326	1.4	1000	0.2	30	1000	0.2	0	0
0.45	4.0493	1.4	1000	0.2	30	1000	0.2	0	0
0.451	4.066	1.4	1000	0.2	30	1000	0.2	0	0
0.452	4.0827	1.4	1000	0.2	30	1000	0.2	0	0
0.453	4.0998	1.4	1000	0.2	30	1000	0.2	0	0
0.454	4.1175	1.4	1000	0.2	30	1000	0.2	0	0
0.455	4.1354	1.4	1000	0.2	30	1000	0.2	0	0
0.456	4.1535	1.4	1000	0.2	30	1000	0.2	0	0
0.457	4.1717	1.4	1000	0.2	30	1000	0.2	0	0
0.458	4.1897	1.4	1000	0.2	30	1000	0.2	0	0
0.459	4.2079	1.4	1000	0.2	30	1000	0.2	0	0
0.46	4.2261	1.4	1000	0.2	30	1000	0.2	0	0
0.461	4.2444	1.4	1000	0.2	30	1000	0.2	0	0
0.462	4.2626	1.4	1000	0.2	30	1000	0.2	0	0
0.463	4.2808	1.4	1000	0.2	30	1000	0.2	0	0
0.464	4.2995	1.4	1000	0.2	30	1000	0.2	0	0
0.465	4.319	1.4	1000	0.2	30	1000	0.2	0	0
0.466	4.3384	1.4	1000	0.2	30	1000	0.2	0	0
0.467	4.3577	1.4	1000	0.2	30	1000	0.2	0	0
0.468	4.3769	1.4	1000	0.2	30	1000	0.2	0	0
0.469	4.3961	1.4	1000	0.2	30	1000	0.2	0	0
0.47	4.4153	1.4	1000	0.2	30	1000	0.2	0	0
0.471	4.4346	1.4	1000	0.2	30	1000	0.2	0	0
0.472	4.4535	1.4	1000	0.2	30	1000	0.2	0	0
0.473	4.4726	1.4	1000	0.2	30	1000	0.2	0	0
0.474	4.4919	1.4	1000	0.2	30	1000	0.2	0	0
0.475	4.5108	1.4	1000	0.2	30	1000	0.2	0	0
0.476	4.53	1.4	1000	0.2	30	1000	0.2	0	0
0.477	4.5493	1.4	1000	0.2	30	1000	0.2	0	0
0.478	4.5687	1.4	1000	0.2	30	1000	0.2	0	0
0.479	4.5883	1.4	1000	0.2	30	1000	0.2	0	0
0.48	4.6084	1.4	1000	0.2	30	1000	0.2	0	0
0.481	4.6292	1.4	1000	0.2	30	1000	0.2	0	0
0.482	4.6507	1.4	1000	0.2	30	1000	0.2	0	0
0.483	4.6726	1.4	1000	0.2	30	1000	0.2	0	0
0.484	4.6949	1.4	1000	0.2	30	1000	0.2	0	0
0.485	4.7178	1.4	1000	0.2	30	1000	0.2	0	0
0.486	4.741	1.4	1000	0.2	30	1000	0.2	0	0
0.487	4.7639	1.4	1000	0.2	30	1000	0.2	0	0
0.488	4.7862	1.4	1000	0.2	30	1000	0.2	0	0
0.489	4.8085	1.4	1000	0.2	30	1000	0.2	0	0
0.49	4.8309	1.4	1000	0.2	30	1000	0.2	0	0
0.491	4.8535	1.4	1000	0.2	30	1000	0.2	0	0
0.492	4.8761	1.4	1000	0.2	30	1000	0.2	0	0
0.493	4.8987	1.4	1000	0.2	30	1000	0.2	0	0
0.494	4.9219	1.4	1000	0.2	30	1000	0.2	0	0
0.495	4.9462	1.4	1000	0.2	30	1000	0.2	0	0
0.496	4.9711	1.4	1000	0.2	30	1000	0.2	0	0
0.497	4.9967	1.4	1000	0.2	30	1000	0.2	0	0
0.498	5.0227	1.4	1000	0.2	30	1000	0.2	0	0
0.499	5.0492	1.4	1000	0.2	30	1000	0.2	0	0
0.5	5.0763	1.4	1000	0.2	30	1000	0.2	0	0
0.501	5.1038	1.4	1000	0.2	30	1000	0.2	0	0
0.502	5.1314	1.4	1000	0.2	30	1000	0.2	0	0
0.503	5.1591	1.4	1000	0.2	30	1000	0.2	0	0
0.504	5.187	1.4	1000	0.2	30	1000	0.2	0	0
0.505	5.2151	1.4	1000	0.2	30	1000	0.2	0	0
0.506	5.2434	1.4	1000	0.2	30	1000	0.2	0	0
0.507	5.272	1.4	1000	0.2	30	1000	0.2	0	0
0.508	5.3009	1.4	1000	0.2	30	1000	0.2	0	0
0.509	5.3305	1.4	1000	0.2	30	1000	0.2	0	0
0.51	5.3608	1.4	1000	0.2	30	1000	0.2	0	0
0.511	5.3918	1.4	1000	0.2	30	1000	0.2	0	0
0.512	5.4236	1.4	1000	0.2	30	1000	0.2	0	0
0.513	5.4561	1.4	1000	0.2	30	1000	0.2	0	0
0.514	5.4894	1.4	1000	0.2	30	1000	0.2	0	0
0.515	5.5234	1.4	1000	0.2	30	1000	0.2	0	0
0.516	5.5579	1.4	1000	0.2	30	1000	0.2	0	0
0.517	5.5924	1.4	1000	0.2	30	1000	0.2	0	0
0.518	5.6266	1.4	1000	0.2	30	1000	0.2	0	0
0.519	5.6604	1.4	1000	0.2	30	1000	0.2	0	0
0.52	5.6942	1.4	1000	0.2	30	1000	0.2	0	0
0.521	5.7283	1.4	1000	0.2	30	1000	0.2	0	0
0.522	5.7622	1.4	1000	0.2	30	1000	0.2	0	0
0.523	5.7964	1.4	1000	0.2	30	1000	0.2	0	0
0.524	5.8312	1.4	1000	0.2	30	1000	0.2	0	0
0.525	5.8668	1.4	1000	0.2	30	1000	0.2	0	0
0.526	5.9035	1.4	1000	0.2	30	1000	0.2	0	0
0.527	5.9407	1.4	1000	0.2	30	1000	0.2	0	0
0.528	5.9782	1.4	1000	0.2	30	1000	0.2	0	0
0.529	6.0163	1.4	1000	0.2	30	1000	0.2	0	0
0.53	6.0545	1.4	1000	0.2	30	1000	0.2	0	0
0.531	6.0932	1.4	1000	0.2	30	1000	0.2	0	0
0.532	6.1326	1.4	1000	0.2	30	1000	0.2	0	0
0.533	6.1727	1.4	1000	0.2	30	1000	0.2	0	0
0.534	6.2133	1.4	1000	0.2	30	1000	0.2	0	0
0.535	6.2541	1.4	1000	0.2	30	1000	0.2	0	0
0.536	6.296	1.4	1000	0.2	30	1000	0.2	0	0
0.537	6.3388	1.4	1000	0.2	30	1000	0.2	0	0
0.538	6.3823	1.4	1000	0.2	30	1000	0.2	0	0
0.539	6.4261	1.4	1000	0.2	30	1000	0.2	0	0
0.54	6.4702	1.4	1000	0.2	30	1000	0.2	0	0
0.541	6.5147	1.4	1000	0.2	30	1000	0.2	0	0
0.542	6.5598	1.4	1000	0.2	30	1000	0.2	0	0
0.543	6.6048	1.4	1000	0.2	30	1000	0.2	0	0
0.544	6.65	1.4	1000	0.2	30	1000	0.2	0	0
0.545	6.6954	1.4	1000	0.2	30	1000	0.2	0	0
0.546	6.7411	1.4	1000	0.2	30	1000	0.2	0	0
0.547	6.7872	1.4	1000	0.2	30	1000	0.2	0	0
0.548	6.8338	1.4	1000	0.2	30	1000	0.2	0	0
0.549	6.8808	1.4	1000	0.2	30	1000	0.2	0	0
0.55	6.9282	1.4	1000	0.2	30	1000	0.2	0	0
0.551	6.976	1.4	1000	0.2	30	1000	0.2	0	0
0.552	7.0241	1.4	1000	0.2	30	1000	0.2	0	0
0.553	7.0726	1.4	1000	0.2	30	1000	0.2	0	0
0.554	7.1216	1.4	1000	0.2	30	1000	0.2	0	0
0.555	7.1709	1.4	1000	0.2	30	1000	0.2	0	0
0.556	7.2208	1.4	1000	0.2	30	1000	0.2	0	0
0.557	7.2713	1.4	1000	0.2	30	1000	0.2	0	0
0.558	7.322	1.4	1000	0.2	30	1000	0.2	0	0
0.559	7.3726	1.4	1000	0.2	30	1000	0.2	0	0
0.56	7.423	1.4	1000	0.2	30	1000	0.2	0	0
0.561	7.4734	1.4	1000	0.2	30	1000	0.2	0	0
0.562	7.524	1.4	1000	0.2	30	1000	0.2	0	0
0.563	7.5746	1.4	1000	0.2	30	1000	0.2	0	0
0.564	7.6253	1.4	1000	0.2	30	1000	0.2	0	0
0.565	7.6758	1.4	1000	0.2	30	1000	0.2	0	0
0.566	7.7268	1.4	1000	0.2	30	1000	0.2	0	0
0.567	7.7782	1.4	1000	0.2	30	1000	0.2	0	0
0.568	7.8296	1.4	1000	0.2	30	1000	0.2	0	0
0.569	7.8808	1.4	1000	0.2	30	1000	0.2	0	0
0.57	7.9319	1.4	1000	0.2	30	1000	0.2	0	0
0.571	7.9829	1.4	1000	0.2	30	1000	0.2	0	0
0.572	8.034	1.4	1000	0.2	30	1000	0.2	0	0
0.573	8.0851	1.4	1000	0.2	30	1000	0.2	0	0
0.574	8.1365	1.4	1000	0.2	30	1000	0.2	0	0
0.575	8.188	1.4	1000	0.2	30	1000	0.2	0	0
0.576	8.2395	1.4	1000	0.2	30	1000	0.2	0	0
0.577	8.2912	1.4	1000	0.2	30	1000	0.2	0	0
0.578	8.3429	1.4	1000	0.2	30	1000	0.2	0	0
0.579	8.3948	1.4	1000	0.2	30	1000	0.2	0	0
0.58	8.4468	1.4	1000	0.2	30	1000	0.2	0	0
0.581	8.4988	1.4	1000	0.2	30	1000	0.2	0	0
0.582	8.5513	1.4	1000	0.2	30	1000	0.2	0	0
0.583	8.6045	1.4	1000	0.2	30	1000	0.2	0	0
0.584	8.6585	1.4	1000	0.2	30	1000	0.2	0	0
0.585	8.7136	1.4	1000	0.2	30	1000	0.2	0	0
0.586	8.7697	1.4	1000	0.2	30	1000	0.2	0	0
0.587	8.8262	1.4	1000	0.2	30	1000	0.2	0	0
0.588	8.8831	1.4	1000	0.2	30	1000	0.2	0	0
0.589	8.94	1.4	1000	0.2	30	1000	0.2	0	0
0.59	8.9967	1.4	1000	0.2	30	1000	0.2	0	0
0.591	9.0528	1.4	1000	0.2	30	1000	0.2	0	0
0.592	9.1084	1.4	1000	0.2	30	1000	0.2	0	0
0.593	9.1638	1.4	1000	0.2	30	1000	0.2	0	0
0.594	9.2189	1.4	1000	0.2	30	1000	0.2	0	0
0.595	9.2742	1.4	1000	0.2	30	1000	0.2	0	0
0.596	9.3297	1.4	1000	0.2	30	1000	0.2	0	0
0.597	9.3855	1.4	1000	0.2	30	1000	0.2	0	0
0.598	9.4418	1.4	1000	0.2	30	1000	0.2	0	0
0.599	9.4984	1.4	1000	0.2	30	1000	0.2	0	0
0.6	9.5551	1.4	1000	0.2	30	1000	0.2	0	0
0.601	9.6125	1.4	1000	0.2	30	1000	0.2	0	0
0.602	9.6706	1.4	1000	0.2	30	1000	0.2	0	0
0.603	9.7298	1.4	1000	0.2	30	1000	0.2	0	0
0.604	9.7903	1.4	1000	0.2	30	1000	0.2	0	0
0.605	9.8526	1.4	1000	0.2	30	1000	0.2	0	0
0.606	9.9168	1.4	1000	0.2	30	1000	0.2	0	0
0.607	9.9825	1.4	1000	0.2	30	1000	0.2	0	0
0.608	10.0495	1.4	1000	0.2	30	1000	0.2	0	0
0.609	10.1173	1.4	1000	0.2	30	1000	0.2	0	0
0.61	10.1851	1.4	1000	0.2	30	1000	0.2	0	0
0.611	10.2526	1.4	1000	0.2	30	1000	0.2	0	0
0.612	10.319	1.4	1000	0.2	30	1000	0.2	0	0
0.613	10.3839	1.4	1000	0.2	30	1000	0.2	0	0
0.614	10.4475	1.4	1000	0.2	30	1000	0.2	0	0
0.615	10.5098	1.4	1000	0.2	30	1000	0.2	0	0
0.616	10.5707	1.4	1000	0.2	30	1000	0.2	0	0
0.617	10.6308	1.4	1000	0.2	30	1000	0.2	0	0
0.618	10.6905	1.4	1000	0.2	30	1000	0.2	0	0
0.619	10.7501	1.4	1000	0.2	30	1000	0.2	0	0
0.62	10.8101	1.4	1000	0.2	30	1000	0.2	0	0
0.621	10.8705	1.4	1000	0.2	30	1000	0.2	0	0
0.622	10.9316	1.4	1000	0.2	30	1000	0.2	0	0
0.623	10.9935	1.4	1000	0.2	30	1000	0.2	0	0
0.624	11.056	1.4	1000	0.2	30	1000	0.2	0	0
0.625	11.119	1.4	1000	0.2	30	1000	0.2	0	0
0.626	11.1823	1.4	1000	0.2	30	1000	0.2	0	0
0.627	11.2457	1.4	1000	0.2	30	1000	0.2	0	0
0.628	11.3088	1.4	1000	0.2	30	1000	0.2	0	0
0.629	11.3713	1.4	1000	0.2	30	1000	0.2	0	0
0.63	11.4333	1.4	1000	0.2	30	1000	0.2	0	0
0.631	11.4949	1.4	1000	0.2	30	1000	0.2	0	0
0.632	11.5561	1.4	1000	0.2	30	1000	0.2	0	0
0.633	11.6169	1.4	1000	0.2	30	1000	0.2	0	0
0.634	11.6776	1.4	1000	0.2	30	1000	0.2	0	0
0.635	11.7383	1.4	1000	0.2	30	1000	0.2	0	0
0.636	11.7993	1.4	1000	0.2	30	1000	0.2	0	0
0.637	11.8611	1.4	1000	0.2	30	1000	0.2	0	0
0.638	11.9242	1.4	1000	0.2	30	1000	0.2	0	0
0.639	11.9883	1.4	1000	0.2	30	1000	0.2	0	0
0.64	12.0532	1.4	1000	0.2	30	1000	0.2	0	0
0.641	12.119	1.4	1000	0.2	30	1000	0.2	0	0
0.642	12.1859	1.4	1000	0.2	30	1000	0.2	0	0
0.643	12.2538	1.4	1000	0.2	30	1000	0.2	0	0
0.644	12.3223	1.4	1000	0.2	30	1000	0.2	0	0
0.645	12.391	1.4	1000	0.2	30	1000	0.2	0	0
0.646	12.4599	1.4	1000	0.2	30	1000	0.2	0	0
0.647	12.5289	1.4	1000	0.2	30	1000	0.2	0	0
0.648	12.5975	1.4	1000	0.2	30	1000	0.2	0	0
0.649	12.6653	1.4	1000	0.2	30	1000	0.2	0	0
0.65	12.7333	1.4	1000	0.2	30	1000	0.2	0	0
0.651	12.8013	1.4	1000	0.2	30	1000	0.2	0	0
0.652	12.8694	1.4	1000	0.2	30	1000	0.2	0	0
0.653	12.9383	1.4	1000	0.2	30	1000	0.2	0	0
0.654	13.0071	1.4	1000	0.2	30	1000	0.2	0	0
0.655	13.0752	1.4	1000	0.2	30	1000	0.2	0	0
0.656	13.1421	1.4	1000	0.2	30	1000	0.2	0	0
0.657	13.2077	1.4	1000	0.2	30	1000	0.2	0	0
0.658	13.2721	1.4	1000	0.2	30	1000	0.2	0	0
0.659	13.3355	1.4	1000	0.2	30	1000	0.2	0	0
0.66	13.3977	1.4	1000	0.2	30	1000	0.2	0	0
0.661	13.4596	1.4	1000	0.2	30	1000	0.2	0	0
0.662	13.5223	1.4	1000	0.2	30	1000	0.2	0	0
0.663	13.5864	1.4	1000	0.2	30	1000	0.2	0	0
0.664	13.6519	1.4	1000	0.2	30	1000	0.2	0	0
0.665	13.7182	1.4	1000	0.2	30	1000	0.2	0	0
0.666	13.7847	1.4	1000	0.2	30	1000	0.2	0	0
0.667	13.8516	1.4	1000	0.2	30	1000	0.2	0	0
0.668	13.9194	1.4	1000	0.2	30	1000	0.2	0	0
0.669	13.9882	1.4	1000	0.2	30	1000	0.2	0	0
0.67	14.0577	1.4	1000	0.2	30	1000	0.2	0	0
0.671	14.1277	1.4	1000	0.2	30	1000	0.2	0	0
0.672	14.1985	1.4	1000	0.2	30	1000	0.2	0	0
0.673	14.2707	1.4	1000	0.2	30	1000	0.2	0	0
0.674	14.3439	1.4	1000	0.2	30	1000	0.2	0	0
0.675	14.4176	1.4	1000	0.2	30	1000	0.2	0	0
0.676	14.4921	1.4	1000	0.2	30	1000	0.2	0	0
0.677	14.5676	1.4	1000	0.2	30	1000	0.2	0	0
0.678	14.6443	1.4	1000	0.2	30	1000	0.2	0	0
0.679	14.7218	1.4	1000	0.2	30	1000	0.2	0	0
0.68	14.8005	1.4	1000	0.2	30	1000	0.2	0	0
0.681	14.8804	1.4	1000	0.2	30	1000	0.2	0	0
0.682	14.9626	1.4	1000	0.2	30	1000	0.2	0	0
0.683	15.0477	1.4	1000	0.2	30	1000	0.2	0	0
0.684	15.1363	1.4	1000	0.2	30	1000	0.2	0	0
0.685	15.227	1.4	1000	0.2	30	1000	0.2	0	0
0.686	15.3181	1.4	1000	0.2	30	1000	0.2	0	0
0.687	15.4085	1.4	1000	0.2	30	1000	0.2	0	0
0.688	15.498	1.4	1000	0.2	30	1000	0.2	0	0
0.689	15.5864	1.4	1000	0.2	30	1000	0.2	0	0
0.69	15.673	1.4	1000	0.2	30	1000	0.2	0	0
0.691	15.7574	1.4	1000	0.2	30	1000	0.2	0	0
0.692	15.8402	1.4	1000	0.2	30	1000	0.2	0	0
0.693	15.9224	1.4	1000	0.2	30	1000	0.2	0	0
0.694	16.0049	1.4	1000	0.2	30	1000	0.2	0	0
0.695	16.0884	1.4	1000	0.2	30	1000	0.2	0	0
0.696	16.1726	1.4	1000	0.2	30	1000	0.2	0	0
0.697	16.2571	1.4	1000	0.2	30	1000	0.2	0	0
0.698	16.3418	1.4	1000	0.2	30	1000	0.2	0	0
0.699	16.4266	1.4	1000	0.2	30	1000	0.2	0	0
0.7	16.5116	1.4	1000	0.2	30	1000	0.2	0	0
0.701	16.5969	1.4	1000	0.2	30	1000	0.2	0	0
0.702	16.6815	1.4	1000	0.2	30	1000	0.2	0	0
0.703	16.7654	1.4	1000	0.2	30	1000	0.2	0	0
0.704	16.8487	1.4	1000	0.2	30	1000	0.2	0	0
0.705	16.9315	1.4	1000	0.2	30	1000	0.2	0	0
0.706	17.0143	1.4	1000	0.2	30	1000	0.2	0	0
0.707	17.0975	1.4	1000	0.2	30	1000	0.2	0	0
0.708	17.1812	1.4	1000	0.2	30	1000	0.2	0	0
0.709	17.2656	1.4	1000	0.2	30	1000	0.2	0	0
0.71	17.3506	1.4	1000	0.2	30	1000	0.2	0	0
0.711	17.4359	1.4	1000	0.2	30	1000	0.2	0	0
0.712	17.5224	1.4	1000	0.2	30	1000	0.2	0	0
0.713	17.6114	1.4	1000	0.2	30	1000	0.2	0	0
0.714	17.7048	1.4	1000	0.2	30	1000	0.2	0	0
0.715	17.8027	1.4	1000	0.2	30	1000	0.2	0	0
0.716	17.903	1.4	1000	0.2	30	1000	0.2	0	0
0.717	18.0015	1.4	1000	0.2	30	1000	0.2	0	0
0.718	18.0964	1.4	1000	0.2	30	1000	0.2	0	0
0.719	18.1877	1.4	1000	0.2	30	1000	0.2	0	0
0.72	18.2764	1.4	1000	0.2	30	1000	0.2	0	0
0.721	18.3628	1.4	1000	0.2	30	1000	0.2	0	0
0.722	18.4458	1.4	1000	0.2	30	1000	0.2	0	0
0.723	18.5259	1.4	1000	0.2	30	1000	0.2	0	0
0.724	18.6075	1.4	1000	0.2	30	1000	0.2	0	0
0.725	18.692	1.4	1000	0.2	30	1000	0.2	0	0
0.726	18.7788	1.4	1000	0.2	30	1000	0.2	0	0
0.727	18.865	1.4	1000	0.2	30	1000	0.2	0	0
0.728	18.9478	1.4	1000	0.2	30	1000	0.2	0	0
0.729	19.0272	1.4	1000	0.2	30	1000	0.2	0	0
0.73	19.1046	1.4	1000	0.2	30	1000	0.2	0	0
0.731	19.1808	1.4	1000	0.2	30	1000	0.2	0	0
0.732	19.2566	1.4	1000	0.2	30	1000	0.2	0	0
0.733	19.3325	1.4	1000	0.2	30	1000	0.2	0	0
0.734	19.4087	1.4	1000	0.2	30	1000	0.2	0	0
0.735	19.4861	1.4	1000	0.2	30	1000	0.2	0	0
0.736	19.5656	1.4	1000	0.2	30	1000	0.2	0	0
0.737	19.6472	1.4	1000	0.2	30	1000	0.2	0	0
0.738	19.7297	1.4	1000	0.2	30	1000	0.2	0	0
0.739	19.8123	1.4	1000	0.2	30	1000	0.2	0	0
0.74	19.8945	1.4	1000	0.2	30	1000	0.2	0	0
0.741	19.9767	1.4	1000	0.2	30	1000	0.2	0	0
0.742	20.0593	1.4	1000	0.2	30	1000	0.2	0	0
0.743	20.1418	1.4	1000	0.2	30	1000	0.2	0	0
0.744	20.2244	1.4	1000	0.2	30	1000	0.2	0	0
0.745	20.3074	1.4	1000	0.2	30	1000	0.2	0	0
0.746	20.391	1.4	1000	0.2	30	1000	0.2	0	0
0.747	20.4757	1.4	1000	0.2	30	1000	0.2	0	0
0.748	20.5606	1.4	1000	0.2	30	1000	0.2	0	0
0.749	20.6456	1.4	1000	0.2	30	1000	0.2	0	0
0.75	20.7307	1.4	1000	0.2	30	1000	0.2	0	0
0.751	20.8159	1.4	1000	0.2	30	1000	0.2	0	0
0.752	20.9011	1.4	1000	0.2	30	1000	0.2	0	0
0.753	20.9864	1.4	1000	0.2	30	1000	0.2	0	0
0.754	21.0725	1.4	1000	0.2	30	1000	0.2	0	0
0.755	21.161	1.4	1000	0.2	30	1000	0.2	0	0
0.756	21.2582	1.4	1000	0.2	30	1000	0.2	0	0
0.757	21.38	1.4	1000	0.2	30	1000	0.2	0	0
0.758	21.5256	1.4	1000	0.2	30	1000	0.2	0	0
0.759	21.663	1.4	1000	0.2	30	1000	0.2	0	0
0.76	21.7931	1.4	1000	0.2	30	1000	0.2	0	0
0.761	21.914	1.4	1000	0.2	30	1000	0.2	0	0
0.762	22.0235	1.4	1000	0.2	30	1000	0.2	0	0
0.763	22.1146	1.4	1000	0.2	30	1000	0.2	0	0
0.764	22.1748	1.4	1000	0.2	30	1000	0.2	0	0
0.765	22.2075	1.4	1000	0.2	30	1000	0.2	0	0
0.766	22.2465	1.4	1000	0.2	30	1000	0.2	0	0
0.767	22.2919	1.4	1000	0.2	30	1000	0.2	0	0
0.768	22.3452	1.4	1000	0.2	30	1000	0.2	0	0
0.769	22.4074	1.4	1000	0.2	30	1000	0.2	0	0
0.77	22.4789	1.4	1000	0.2	30	1000	0.2	0	0
0.771	22.5571	1.4	1000	0.2	30	1000	0.2	0	0
0.772	22.6397	1.4	1000	0.2	30	1000	0.2	0	0
0.773	22.7246	1.4	1000	0.2	30	1000	0.2	0	0
0.774	22.8105	1.4	1000	0.2	30	1000	0.2	0	0
0.775	22.8972	1.4	1000	0.2	30	1000	0.2	0	0
0.776	22.9842	1.4	1000	0.2	30	1000	0.2	0	0
0.777	23.0718	1.4	1000	0.2	30	1000	0.2	0	0
0.778	23.1595	1.4	1000	0.2	30	1000	0.2	0	0
0.779	23.2469	1.4	1000	0.2	30	1000	0.2	0	0
0.78	23.3344	1.4	1000	0.2	30	1000	0.2	0	0
0.781	23.4221	1.4	1000	0.2	30	1000	0.2	0	0
0.782	23.51	1.4	1000	0.2	30	1000	0.2	0	0
0.783	23.5982	1.4	1000	0.2	30	1000	0.2	0	0
0.784	23.6868	1.4	1000	0.2	30	1000	0.2	0	0
0.785	23.7758	1.4	1000	0.2	30	1000	0.2	0	0
0.786	23.8656	1.4	1000	0.2	30	1000	0.2	0	0
0.787	23.956	1.4	1000	0.2	30	1000	0.2	0	0
0.788	24.0465	1.4	1000	0.2	30	1000	0.2	0	0
0.789	24.1372	1.4	1000	0.2	30	1000	0.2	0	0
0.79	24.2276	1.4	1000	0.2	30	1000	0.2	0	0
0.791	24.3177	1.4	1000	0.2	30	1000	0.2	0	0
0.792	24.4075	1.4	1000	0.2	30	1000	0.2	0	0
0.793	24.4973	1.4	1000	0.2	30	1000	0.2	0	0
0.794	24.587	1.4	1000	0.2	30	1000	0.2	0	0
0.795	24.676	1.4	1000	0.2	30	1000	0.2	0	0
0.796	24.7649	1.4	1000	0.2	30	1000	0.2	0	0
0.797	24.8543	1.4	1000	0.2	30	1000	0.2	0	0
0.798	24.9443	1.4	1000	0.2	30	1000	0.2	0	0
