*Name: Needle Litter
Type: Needle litter
Particle Size: Solid
Wavelength Range: All

Origin: Remote Sensing Laboratories, University of Zurich

Description: needle litter spectrum

Measurement: Hemispherical Conical Reflectance Factor HCRF

First Column:  X Wavelength (micrometers)
Second Column:  Y Reflectance (percent)
First X Value: 0.354
Last X Value: 2.45
Number of X Values: 2097
Additional Information:  None*

*Number of Lambda pertinent values : *  2097
*Lambda_min - Lambda_max : *  0.354 2.45
*Hapke parameters : Bo - h - b1 - c1 - b2 - c2 *  1 1 1 1 1 1
*Lambda - Ro - Refraction index - A - Alpha - w_Hapke - A_Hapke_spec - Alpha_Hapke_spec - T_Direct - T_Diffus*
0.354	2.3968	1.4	1000	0.2	30	1000	0.2	0	0
0.355	2.4012	1.4	1000	0.2	30	1000	0.2	0	0
0.356	2.4095	1.4	1000	0.2	30	1000	0.2	0	0
0.357	2.4169	1.4	1000	0.2	30	1000	0.2	0	0
0.358	2.425	1.4	1000	0.2	30	1000	0.2	0	0
0.359	2.437	1.4	1000	0.2	30	1000	0.2	0	0
0.36	2.4478	1.4	1000	0.2	30	1000	0.2	0	0
0.361	2.459	1.4	1000	0.2	30	1000	0.2	0	0
0.362	2.4707	1.4	1000	0.2	30	1000	0.2	0	0
0.363	2.4805	1.4	1000	0.2	30	1000	0.2	0	0
0.364	2.4912	1.4	1000	0.2	30	1000	0.2	0	0
0.365	2.5029	1.4	1000	0.2	30	1000	0.2	0	0
0.366	2.5141	1.4	1000	0.2	30	1000	0.2	0	0
0.367	2.5235	1.4	1000	0.2	30	1000	0.2	0	0
0.368	2.5327	1.4	1000	0.2	30	1000	0.2	0	0
0.369	2.5431	1.4	1000	0.2	30	1000	0.2	0	0
0.37	2.5546	1.4	1000	0.2	30	1000	0.2	0	0
0.371	2.5656	1.4	1000	0.2	30	1000	0.2	0	0
0.372	2.5769	1.4	1000	0.2	30	1000	0.2	0	0
0.373	2.5891	1.4	1000	0.2	30	1000	0.2	0	0
0.374	2.6023	1.4	1000	0.2	30	1000	0.2	0	0
0.375	2.6176	1.4	1000	0.2	30	1000	0.2	0	0
0.376	2.6329	1.4	1000	0.2	30	1000	0.2	0	0
0.377	2.6469	1.4	1000	0.2	30	1000	0.2	0	0
0.378	2.6615	1.4	1000	0.2	30	1000	0.2	0	0
0.379	2.6777	1.4	1000	0.2	30	1000	0.2	0	0
0.38	2.6935	1.4	1000	0.2	30	1000	0.2	0	0
0.381	2.7081	1.4	1000	0.2	30	1000	0.2	0	0
0.382	2.7245	1.4	1000	0.2	30	1000	0.2	0	0
0.383	2.7419	1.4	1000	0.2	30	1000	0.2	0	0
0.384	2.7604	1.4	1000	0.2	30	1000	0.2	0	0
0.385	2.7804	1.4	1000	0.2	30	1000	0.2	0	0
0.386	2.798	1.4	1000	0.2	30	1000	0.2	0	0
0.387	2.8164	1.4	1000	0.2	30	1000	0.2	0	0
0.388	2.8382	1.4	1000	0.2	30	1000	0.2	0	0
0.389	2.8584	1.4	1000	0.2	30	1000	0.2	0	0
0.39	2.8788	1.4	1000	0.2	30	1000	0.2	0	0
0.391	2.8988	1.4	1000	0.2	30	1000	0.2	0	0
0.392	2.9169	1.4	1000	0.2	30	1000	0.2	0	0
0.393	2.9368	1.4	1000	0.2	30	1000	0.2	0	0
0.394	2.9565	1.4	1000	0.2	30	1000	0.2	0	0
0.395	2.9744	1.4	1000	0.2	30	1000	0.2	0	0
0.396	2.9933	1.4	1000	0.2	30	1000	0.2	0	0
0.397	3.0117	1.4	1000	0.2	30	1000	0.2	0	0
0.398	3.0297	1.4	1000	0.2	30	1000	0.2	0	0
0.399	3.0478	1.4	1000	0.2	30	1000	0.2	0	0
0.4	3.0648	1.4	1000	0.2	30	1000	0.2	0	0
0.401	3.0815	1.4	1000	0.2	30	1000	0.2	0	0
0.402	3.098	1.4	1000	0.2	30	1000	0.2	0	0
0.403	3.114	1.4	1000	0.2	30	1000	0.2	0	0
0.404	3.1299	1.4	1000	0.2	30	1000	0.2	0	0
0.405	3.147	1.4	1000	0.2	30	1000	0.2	0	0
0.406	3.166	1.4	1000	0.2	30	1000	0.2	0	0
0.407	3.1854	1.4	1000	0.2	30	1000	0.2	0	0
0.408	3.2063	1.4	1000	0.2	30	1000	0.2	0	0
0.409	3.2283	1.4	1000	0.2	30	1000	0.2	0	0
0.41	3.2492	1.4	1000	0.2	30	1000	0.2	0	0
0.411	3.2709	1.4	1000	0.2	30	1000	0.2	0	0
0.412	3.2928	1.4	1000	0.2	30	1000	0.2	0	0
0.413	3.3141	1.4	1000	0.2	30	1000	0.2	0	0
0.414	3.336	1.4	1000	0.2	30	1000	0.2	0	0
0.415	3.3573	1.4	1000	0.2	30	1000	0.2	0	0
0.416	3.3781	1.4	1000	0.2	30	1000	0.2	0	0
0.417	3.3997	1.4	1000	0.2	30	1000	0.2	0	0
0.418	3.4214	1.4	1000	0.2	30	1000	0.2	0	0
0.419	3.443	1.4	1000	0.2	30	1000	0.2	0	0
0.42	3.465	1.4	1000	0.2	30	1000	0.2	0	0
0.421	3.4868	1.4	1000	0.2	30	1000	0.2	0	0
0.422	3.5086	1.4	1000	0.2	30	1000	0.2	0	0
0.423	3.5307	1.4	1000	0.2	30	1000	0.2	0	0
0.424	3.5531	1.4	1000	0.2	30	1000	0.2	0	0
0.425	3.5755	1.4	1000	0.2	30	1000	0.2	0	0
0.426	3.5981	1.4	1000	0.2	30	1000	0.2	0	0
0.427	3.6211	1.4	1000	0.2	30	1000	0.2	0	0
0.428	3.6441	1.4	1000	0.2	30	1000	0.2	0	0
0.429	3.6674	1.4	1000	0.2	30	1000	0.2	0	0
0.43	3.6907	1.4	1000	0.2	30	1000	0.2	0	0
0.431	3.7136	1.4	1000	0.2	30	1000	0.2	0	0
0.432	3.7362	1.4	1000	0.2	30	1000	0.2	0	0
0.433	3.7583	1.4	1000	0.2	30	1000	0.2	0	0
0.434	3.7796	1.4	1000	0.2	30	1000	0.2	0	0
0.435	3.8002	1.4	1000	0.2	30	1000	0.2	0	0
0.436	3.8201	1.4	1000	0.2	30	1000	0.2	0	0
0.437	3.8399	1.4	1000	0.2	30	1000	0.2	0	0
0.438	3.8595	1.4	1000	0.2	30	1000	0.2	0	0
0.439	3.8789	1.4	1000	0.2	30	1000	0.2	0	0
0.44	3.8983	1.4	1000	0.2	30	1000	0.2	0	0
0.441	3.9183	1.4	1000	0.2	30	1000	0.2	0	0
0.442	3.9385	1.4	1000	0.2	30	1000	0.2	0	0
0.443	3.9586	1.4	1000	0.2	30	1000	0.2	0	0
0.444	3.9787	1.4	1000	0.2	30	1000	0.2	0	0
0.445	3.9991	1.4	1000	0.2	30	1000	0.2	0	0
0.446	4.0194	1.4	1000	0.2	30	1000	0.2	0	0
0.447	4.0394	1.4	1000	0.2	30	1000	0.2	0	0
0.448	4.059	1.4	1000	0.2	30	1000	0.2	0	0
0.449	4.0787	1.4	1000	0.2	30	1000	0.2	0	0
0.45	4.0983	1.4	1000	0.2	30	1000	0.2	0	0
0.451	4.1181	1.4	1000	0.2	30	1000	0.2	0	0
0.452	4.1381	1.4	1000	0.2	30	1000	0.2	0	0
0.453	4.1583	1.4	1000	0.2	30	1000	0.2	0	0
0.454	4.1789	1.4	1000	0.2	30	1000	0.2	0	0
0.455	4.2001	1.4	1000	0.2	30	1000	0.2	0	0
0.456	4.2215	1.4	1000	0.2	30	1000	0.2	0	0
0.457	4.2428	1.4	1000	0.2	30	1000	0.2	0	0
0.458	4.2642	1.4	1000	0.2	30	1000	0.2	0	0
0.459	4.2852	1.4	1000	0.2	30	1000	0.2	0	0
0.46	4.3061	1.4	1000	0.2	30	1000	0.2	0	0
0.461	4.3272	1.4	1000	0.2	30	1000	0.2	0	0
0.462	4.3481	1.4	1000	0.2	30	1000	0.2	0	0
0.463	4.369	1.4	1000	0.2	30	1000	0.2	0	0
0.464	4.3901	1.4	1000	0.2	30	1000	0.2	0	0
0.465	4.4115	1.4	1000	0.2	30	1000	0.2	0	0
0.466	4.4332	1.4	1000	0.2	30	1000	0.2	0	0
0.467	4.4552	1.4	1000	0.2	30	1000	0.2	0	0
0.468	4.4772	1.4	1000	0.2	30	1000	0.2	0	0
0.469	4.499	1.4	1000	0.2	30	1000	0.2	0	0
0.47	4.5208	1.4	1000	0.2	30	1000	0.2	0	0
0.471	4.5427	1.4	1000	0.2	30	1000	0.2	0	0
0.472	4.5645	1.4	1000	0.2	30	1000	0.2	0	0
0.473	4.5867	1.4	1000	0.2	30	1000	0.2	0	0
0.474	4.609	1.4	1000	0.2	30	1000	0.2	0	0
0.475	4.6313	1.4	1000	0.2	30	1000	0.2	0	0
0.476	4.6538	1.4	1000	0.2	30	1000	0.2	0	0
0.477	4.6765	1.4	1000	0.2	30	1000	0.2	0	0
0.478	4.6992	1.4	1000	0.2	30	1000	0.2	0	0
0.479	4.7225	1.4	1000	0.2	30	1000	0.2	0	0
0.48	4.7457	1.4	1000	0.2	30	1000	0.2	0	0
0.481	4.769	1.4	1000	0.2	30	1000	0.2	0	0
0.482	4.793	1.4	1000	0.2	30	1000	0.2	0	0
0.483	4.8175	1.4	1000	0.2	30	1000	0.2	0	0
0.484	4.8426	1.4	1000	0.2	30	1000	0.2	0	0
0.485	4.8688	1.4	1000	0.2	30	1000	0.2	0	0
0.486	4.8952	1.4	1000	0.2	30	1000	0.2	0	0
0.487	4.9215	1.4	1000	0.2	30	1000	0.2	0	0
0.488	4.9471	1.4	1000	0.2	30	1000	0.2	0	0
0.489	4.9723	1.4	1000	0.2	30	1000	0.2	0	0
0.49	4.9978	1.4	1000	0.2	30	1000	0.2	0	0
0.491	5.0233	1.4	1000	0.2	30	1000	0.2	0	0
0.492	5.0481	1.4	1000	0.2	30	1000	0.2	0	0
0.493	5.0731	1.4	1000	0.2	30	1000	0.2	0	0
0.494	5.0987	1.4	1000	0.2	30	1000	0.2	0	0
0.495	5.1252	1.4	1000	0.2	30	1000	0.2	0	0
0.496	5.1525	1.4	1000	0.2	30	1000	0.2	0	0
0.497	5.18	1.4	1000	0.2	30	1000	0.2	0	0
0.498	5.2077	1.4	1000	0.2	30	1000	0.2	0	0
0.499	5.2363	1.4	1000	0.2	30	1000	0.2	0	0
0.5	5.2651	1.4	1000	0.2	30	1000	0.2	0	0
0.501	5.2942	1.4	1000	0.2	30	1000	0.2	0	0
0.502	5.3236	1.4	1000	0.2	30	1000	0.2	0	0
0.503	5.3526	1.4	1000	0.2	30	1000	0.2	0	0
0.504	5.3816	1.4	1000	0.2	30	1000	0.2	0	0
0.505	5.411	1.4	1000	0.2	30	1000	0.2	0	0
0.506	5.4403	1.4	1000	0.2	30	1000	0.2	0	0
0.507	5.4696	1.4	1000	0.2	30	1000	0.2	0	0
0.508	5.4993	1.4	1000	0.2	30	1000	0.2	0	0
0.509	5.5293	1.4	1000	0.2	30	1000	0.2	0	0
0.51	5.5599	1.4	1000	0.2	30	1000	0.2	0	0
0.511	5.5909	1.4	1000	0.2	30	1000	0.2	0	0
0.512	5.622	1.4	1000	0.2	30	1000	0.2	0	0
0.513	5.6539	1.4	1000	0.2	30	1000	0.2	0	0
0.514	5.6865	1.4	1000	0.2	30	1000	0.2	0	0
0.515	5.7195	1.4	1000	0.2	30	1000	0.2	0	0
0.516	5.7525	1.4	1000	0.2	30	1000	0.2	0	0
0.517	5.7857	1.4	1000	0.2	30	1000	0.2	0	0
0.518	5.819	1.4	1000	0.2	30	1000	0.2	0	0
0.519	5.8514	1.4	1000	0.2	30	1000	0.2	0	0
0.52	5.8833	1.4	1000	0.2	30	1000	0.2	0	0
0.521	5.9149	1.4	1000	0.2	30	1000	0.2	0	0
0.522	5.9462	1.4	1000	0.2	30	1000	0.2	0	0
0.523	5.9777	1.4	1000	0.2	30	1000	0.2	0	0
0.524	6.0091	1.4	1000	0.2	30	1000	0.2	0	0
0.525	6.0404	1.4	1000	0.2	30	1000	0.2	0	0
0.526	6.0725	1.4	1000	0.2	30	1000	0.2	0	0
0.527	6.1048	1.4	1000	0.2	30	1000	0.2	0	0
0.528	6.1368	1.4	1000	0.2	30	1000	0.2	0	0
0.529	6.1687	1.4	1000	0.2	30	1000	0.2	0	0
0.53	6.2007	1.4	1000	0.2	30	1000	0.2	0	0
0.531	6.2331	1.4	1000	0.2	30	1000	0.2	0	0
0.532	6.2661	1.4	1000	0.2	30	1000	0.2	0	0
0.533	6.2989	1.4	1000	0.2	30	1000	0.2	0	0
0.534	6.3319	1.4	1000	0.2	30	1000	0.2	0	0
0.535	6.3655	1.4	1000	0.2	30	1000	0.2	0	0
0.536	6.3996	1.4	1000	0.2	30	1000	0.2	0	0
0.537	6.4342	1.4	1000	0.2	30	1000	0.2	0	0
0.538	6.4689	1.4	1000	0.2	30	1000	0.2	0	0
0.539	6.5038	1.4	1000	0.2	30	1000	0.2	0	0
0.54	6.5391	1.4	1000	0.2	30	1000	0.2	0	0
0.541	6.5745	1.4	1000	0.2	30	1000	0.2	0	0
0.542	6.6098	1.4	1000	0.2	30	1000	0.2	0	0
0.543	6.6453	1.4	1000	0.2	30	1000	0.2	0	0
0.544	6.6807	1.4	1000	0.2	30	1000	0.2	0	0
0.545	6.7162	1.4	1000	0.2	30	1000	0.2	0	0
0.546	6.7516	1.4	1000	0.2	30	1000	0.2	0	0
0.547	6.7872	1.4	1000	0.2	30	1000	0.2	0	0
0.548	6.8233	1.4	1000	0.2	30	1000	0.2	0	0
0.549	6.8596	1.4	1000	0.2	30	1000	0.2	0	0
0.55	6.8961	1.4	1000	0.2	30	1000	0.2	0	0
0.551	6.9325	1.4	1000	0.2	30	1000	0.2	0	0
0.552	6.9689	1.4	1000	0.2	30	1000	0.2	0	0
0.553	7.0057	1.4	1000	0.2	30	1000	0.2	0	0
0.554	7.0428	1.4	1000	0.2	30	1000	0.2	0	0
0.555	7.0799	1.4	1000	0.2	30	1000	0.2	0	0
0.556	7.117	1.4	1000	0.2	30	1000	0.2	0	0
0.557	7.1545	1.4	1000	0.2	30	1000	0.2	0	0
0.558	7.1922	1.4	1000	0.2	30	1000	0.2	0	0
0.559	7.2299	1.4	1000	0.2	30	1000	0.2	0	0
0.56	7.2673	1.4	1000	0.2	30	1000	0.2	0	0
0.561	7.3041	1.4	1000	0.2	30	1000	0.2	0	0
0.562	7.3408	1.4	1000	0.2	30	1000	0.2	0	0
0.563	7.3775	1.4	1000	0.2	30	1000	0.2	0	0
0.564	7.4141	1.4	1000	0.2	30	1000	0.2	0	0
0.565	7.4504	1.4	1000	0.2	30	1000	0.2	0	0
0.566	7.4869	1.4	1000	0.2	30	1000	0.2	0	0
0.567	7.5237	1.4	1000	0.2	30	1000	0.2	0	0
0.568	7.5605	1.4	1000	0.2	30	1000	0.2	0	0
0.569	7.5971	1.4	1000	0.2	30	1000	0.2	0	0
0.57	7.6336	1.4	1000	0.2	30	1000	0.2	0	0
0.571	7.67	1.4	1000	0.2	30	1000	0.2	0	0
0.572	7.7065	1.4	1000	0.2	30	1000	0.2	0	0
0.573	7.7428	1.4	1000	0.2	30	1000	0.2	0	0
0.574	7.7791	1.4	1000	0.2	30	1000	0.2	0	0
0.575	7.8158	1.4	1000	0.2	30	1000	0.2	0	0
0.576	7.8527	1.4	1000	0.2	30	1000	0.2	0	0
0.577	7.8898	1.4	1000	0.2	30	1000	0.2	0	0
0.578	7.927	1.4	1000	0.2	30	1000	0.2	0	0
0.579	7.9644	1.4	1000	0.2	30	1000	0.2	0	0
0.58	8.0019	1.4	1000	0.2	30	1000	0.2	0	0
0.581	8.0397	1.4	1000	0.2	30	1000	0.2	0	0
0.582	8.0782	1.4	1000	0.2	30	1000	0.2	0	0
0.583	8.1174	1.4	1000	0.2	30	1000	0.2	0	0
0.584	8.1576	1.4	1000	0.2	30	1000	0.2	0	0
0.585	8.1989	1.4	1000	0.2	30	1000	0.2	0	0
0.586	8.2414	1.4	1000	0.2	30	1000	0.2	0	0
0.587	8.2849	1.4	1000	0.2	30	1000	0.2	0	0
0.588	8.3291	1.4	1000	0.2	30	1000	0.2	0	0
0.589	8.3737	1.4	1000	0.2	30	1000	0.2	0	0
0.59	8.418	1.4	1000	0.2	30	1000	0.2	0	0
0.591	8.4615	1.4	1000	0.2	30	1000	0.2	0	0
0.592	8.5045	1.4	1000	0.2	30	1000	0.2	0	0
0.593	8.5476	1.4	1000	0.2	30	1000	0.2	0	0
0.594	8.5907	1.4	1000	0.2	30	1000	0.2	0	0
0.595	8.6338	1.4	1000	0.2	30	1000	0.2	0	0
0.596	8.677	1.4	1000	0.2	30	1000	0.2	0	0
0.597	8.7206	1.4	1000	0.2	30	1000	0.2	0	0
0.598	8.7655	1.4	1000	0.2	30	1000	0.2	0	0
0.599	8.811	1.4	1000	0.2	30	1000	0.2	0	0
0.6	8.8565	1.4	1000	0.2	30	1000	0.2	0	0
0.601	8.9027	1.4	1000	0.2	30	1000	0.2	0	0
0.602	8.9497	1.4	1000	0.2	30	1000	0.2	0	0
0.603	8.9976	1.4	1000	0.2	30	1000	0.2	0	0
0.604	9.0471	1.4	1000	0.2	30	1000	0.2	0	0
0.605	9.098	1.4	1000	0.2	30	1000	0.2	0	0
0.606	9.1505	1.4	1000	0.2	30	1000	0.2	0	0
0.607	9.2049	1.4	1000	0.2	30	1000	0.2	0	0
0.608	9.2604	1.4	1000	0.2	30	1000	0.2	0	0
0.609	9.3169	1.4	1000	0.2	30	1000	0.2	0	0
0.61	9.374	1.4	1000	0.2	30	1000	0.2	0	0
0.611	9.4307	1.4	1000	0.2	30	1000	0.2	0	0
0.612	9.4867	1.4	1000	0.2	30	1000	0.2	0	0
0.613	9.5419	1.4	1000	0.2	30	1000	0.2	0	0
0.614	9.5959	1.4	1000	0.2	30	1000	0.2	0	0
0.615	9.6486	1.4	1000	0.2	30	1000	0.2	0	0
0.616	9.7001	1.4	1000	0.2	30	1000	0.2	0	0
0.617	9.7508	1.4	1000	0.2	30	1000	0.2	0	0
0.618	9.8013	1.4	1000	0.2	30	1000	0.2	0	0
0.619	9.852	1.4	1000	0.2	30	1000	0.2	0	0
0.62	9.9031	1.4	1000	0.2	30	1000	0.2	0	0
0.621	9.9547	1.4	1000	0.2	30	1000	0.2	0	0
0.622	10.007	1.4	1000	0.2	30	1000	0.2	0	0
0.623	10.0602	1.4	1000	0.2	30	1000	0.2	0	0
0.624	10.1142	1.4	1000	0.2	30	1000	0.2	0	0
0.625	10.1689	1.4	1000	0.2	30	1000	0.2	0	0
0.626	10.2238	1.4	1000	0.2	30	1000	0.2	0	0
0.627	10.279	1.4	1000	0.2	30	1000	0.2	0	0
0.628	10.3343	1.4	1000	0.2	30	1000	0.2	0	0
0.629	10.3894	1.4	1000	0.2	30	1000	0.2	0	0
0.63	10.4443	1.4	1000	0.2	30	1000	0.2	0	0
0.631	10.4987	1.4	1000	0.2	30	1000	0.2	0	0
0.632	10.5526	1.4	1000	0.2	30	1000	0.2	0	0
0.633	10.6063	1.4	1000	0.2	30	1000	0.2	0	0
0.634	10.6596	1.4	1000	0.2	30	1000	0.2	0	0
0.635	10.7127	1.4	1000	0.2	30	1000	0.2	0	0
0.636	10.766	1.4	1000	0.2	30	1000	0.2	0	0
0.637	10.8199	1.4	1000	0.2	30	1000	0.2	0	0
0.638	10.8747	1.4	1000	0.2	30	1000	0.2	0	0
0.639	10.9304	1.4	1000	0.2	30	1000	0.2	0	0
0.64	10.9866	1.4	1000	0.2	30	1000	0.2	0	0
0.641	11.0436	1.4	1000	0.2	30	1000	0.2	0	0
0.642	11.1017	1.4	1000	0.2	30	1000	0.2	0	0
0.643	11.1601	1.4	1000	0.2	30	1000	0.2	0	0
0.644	11.2187	1.4	1000	0.2	30	1000	0.2	0	0
0.645	11.2776	1.4	1000	0.2	30	1000	0.2	0	0
0.646	11.3365	1.4	1000	0.2	30	1000	0.2	0	0
0.647	11.3953	1.4	1000	0.2	30	1000	0.2	0	0
0.648	11.4535	1.4	1000	0.2	30	1000	0.2	0	0
0.649	11.5108	1.4	1000	0.2	30	1000	0.2	0	0
0.65	11.568	1.4	1000	0.2	30	1000	0.2	0	0
0.651	11.625	1.4	1000	0.2	30	1000	0.2	0	0
0.652	11.682	1.4	1000	0.2	30	1000	0.2	0	0
0.653	11.7393	1.4	1000	0.2	30	1000	0.2	0	0
0.654	11.7964	1.4	1000	0.2	30	1000	0.2	0	0
0.655	11.8526	1.4	1000	0.2	30	1000	0.2	0	0
0.656	11.9072	1.4	1000	0.2	30	1000	0.2	0	0
0.657	11.9604	1.4	1000	0.2	30	1000	0.2	0	0
0.658	12.0126	1.4	1000	0.2	30	1000	0.2	0	0
0.659	12.0636	1.4	1000	0.2	30	1000	0.2	0	0
0.66	12.1132	1.4	1000	0.2	30	1000	0.2	0	0
0.661	12.1623	1.4	1000	0.2	30	1000	0.2	0	0
0.662	12.2127	1.4	1000	0.2	30	1000	0.2	0	0
0.663	12.2647	1.4	1000	0.2	30	1000	0.2	0	0
0.664	12.3181	1.4	1000	0.2	30	1000	0.2	0	0
0.665	12.3724	1.4	1000	0.2	30	1000	0.2	0	0
0.666	12.4277	1.4	1000	0.2	30	1000	0.2	0	0
0.667	12.4845	1.4	1000	0.2	30	1000	0.2	0	0
0.668	12.5425	1.4	1000	0.2	30	1000	0.2	0	0
0.669	12.6011	1.4	1000	0.2	30	1000	0.2	0	0
0.67	12.6609	1.4	1000	0.2	30	1000	0.2	0	0
0.671	12.7221	1.4	1000	0.2	30	1000	0.2	0	0
0.672	12.7844	1.4	1000	0.2	30	1000	0.2	0	0
0.673	12.8477	1.4	1000	0.2	30	1000	0.2	0	0
0.674	12.9122	1.4	1000	0.2	30	1000	0.2	0	0
0.675	12.9776	1.4	1000	0.2	30	1000	0.2	0	0
0.676	13.0442	1.4	1000	0.2	30	1000	0.2	0	0
0.677	13.1118	1.4	1000	0.2	30	1000	0.2	0	0
0.678	13.1803	1.4	1000	0.2	30	1000	0.2	0	0
0.679	13.25	1.4	1000	0.2	30	1000	0.2	0	0
0.68	13.3207	1.4	1000	0.2	30	1000	0.2	0	0
0.681	13.3924	1.4	1000	0.2	30	1000	0.2	0	0
0.682	13.4666	1.4	1000	0.2	30	1000	0.2	0	0
0.683	13.5436	1.4	1000	0.2	30	1000	0.2	0	0
0.684	13.6238	1.4	1000	0.2	30	1000	0.2	0	0
0.685	13.7073	1.4	1000	0.2	30	1000	0.2	0	0
0.686	13.792	1.4	1000	0.2	30	1000	0.2	0	0
0.687	13.8764	1.4	1000	0.2	30	1000	0.2	0	0
0.688	13.9604	1.4	1000	0.2	30	1000	0.2	0	0
0.689	14.0431	1.4	1000	0.2	30	1000	0.2	0	0
0.69	14.125	1.4	1000	0.2	30	1000	0.2	0	0
0.691	14.2056	1.4	1000	0.2	30	1000	0.2	0	0
0.692	14.2842	1.4	1000	0.2	30	1000	0.2	0	0
0.693	14.3622	1.4	1000	0.2	30	1000	0.2	0	0
0.694	14.441	1.4	1000	0.2	30	1000	0.2	0	0
0.695	14.5214	1.4	1000	0.2	30	1000	0.2	0	0
0.696	14.6029	1.4	1000	0.2	30	1000	0.2	0	0
0.697	14.6852	1.4	1000	0.2	30	1000	0.2	0	0
0.698	14.7677	1.4	1000	0.2	30	1000	0.2	0	0
0.699	14.8507	1.4	1000	0.2	30	1000	0.2	0	0
0.7	14.9341	1.4	1000	0.2	30	1000	0.2	0	0
0.701	15.0181	1.4	1000	0.2	30	1000	0.2	0	0
0.702	15.1018	1.4	1000	0.2	30	1000	0.2	0	0
0.703	15.185	1.4	1000	0.2	30	1000	0.2	0	0
0.704	15.2678	1.4	1000	0.2	30	1000	0.2	0	0
0.705	15.3499	1.4	1000	0.2	30	1000	0.2	0	0
0.706	15.4319	1.4	1000	0.2	30	1000	0.2	0	0
0.707	15.5144	1.4	1000	0.2	30	1000	0.2	0	0
0.708	15.5973	1.4	1000	0.2	30	1000	0.2	0	0
0.709	15.6806	1.4	1000	0.2	30	1000	0.2	0	0
0.71	15.7644	1.4	1000	0.2	30	1000	0.2	0	0
0.711	15.8482	1.4	1000	0.2	30	1000	0.2	0	0
0.712	15.9332	1.4	1000	0.2	30	1000	0.2	0	0
0.713	16.0204	1.4	1000	0.2	30	1000	0.2	0	0
0.714	16.1108	1.4	1000	0.2	30	1000	0.2	0	0
0.715	16.2053	1.4	1000	0.2	30	1000	0.2	0	0
0.716	16.302	1.4	1000	0.2	30	1000	0.2	0	0
0.717	16.3969	1.4	1000	0.2	30	1000	0.2	0	0
0.718	16.4881	1.4	1000	0.2	30	1000	0.2	0	0
0.719	16.575	1.4	1000	0.2	30	1000	0.2	0	0
0.72	16.659	1.4	1000	0.2	30	1000	0.2	0	0
0.721	16.7407	1.4	1000	0.2	30	1000	0.2	0	0
0.722	16.8195	1.4	1000	0.2	30	1000	0.2	0	0
0.723	16.8954	1.4	1000	0.2	30	1000	0.2	0	0
0.724	16.9716	1.4	1000	0.2	30	1000	0.2	0	0
0.725	17.0504	1.4	1000	0.2	30	1000	0.2	0	0
0.726	17.1317	1.4	1000	0.2	30	1000	0.2	0	0
0.727	17.2126	1.4	1000	0.2	30	1000	0.2	0	0
0.728	17.2903	1.4	1000	0.2	30	1000	0.2	0	0
0.729	17.3643	1.4	1000	0.2	30	1000	0.2	0	0
0.73	17.4357	1.4	1000	0.2	30	1000	0.2	0	0
0.731	17.5058	1.4	1000	0.2	30	1000	0.2	0	0
0.732	17.5753	1.4	1000	0.2	30	1000	0.2	0	0
0.733	17.645	1.4	1000	0.2	30	1000	0.2	0	0
0.734	17.715	1.4	1000	0.2	30	1000	0.2	0	0
0.735	17.786	1.4	1000	0.2	30	1000	0.2	0	0
0.736	17.8588	1.4	1000	0.2	30	1000	0.2	0	0
0.737	17.9335	1.4	1000	0.2	30	1000	0.2	0	0
0.738	18.0092	1.4	1000	0.2	30	1000	0.2	0	0
0.739	18.085	1.4	1000	0.2	30	1000	0.2	0	0
0.74	18.1603	1.4	1000	0.2	30	1000	0.2	0	0
0.741	18.2352	1.4	1000	0.2	30	1000	0.2	0	0
0.742	18.31	1.4	1000	0.2	30	1000	0.2	0	0
0.743	18.3848	1.4	1000	0.2	30	1000	0.2	0	0
0.744	18.4595	1.4	1000	0.2	30	1000	0.2	0	0
0.745	18.5344	1.4	1000	0.2	30	1000	0.2	0	0
0.746	18.6099	1.4	1000	0.2	30	1000	0.2	0	0
0.747	18.6857	1.4	1000	0.2	30	1000	0.2	0	0
0.748	18.7617	1.4	1000	0.2	30	1000	0.2	0	0
0.749	18.8379	1.4	1000	0.2	30	1000	0.2	0	0
0.75	18.9139	1.4	1000	0.2	30	1000	0.2	0	0
0.751	18.9899	1.4	1000	0.2	30	1000	0.2	0	0
0.752	19.0657	1.4	1000	0.2	30	1000	0.2	0	0
0.753	19.1413	1.4	1000	0.2	30	1000	0.2	0	0
0.754	19.2174	1.4	1000	0.2	30	1000	0.2	0	0
0.755	19.2953	1.4	1000	0.2	30	1000	0.2	0	0
0.756	19.3799	1.4	1000	0.2	30	1000	0.2	0	0
0.757	19.4868	1.4	1000	0.2	30	1000	0.2	0	0
0.758	19.6162	1.4	1000	0.2	30	1000	0.2	0	0
0.759	19.7386	1.4	1000	0.2	30	1000	0.2	0	0
0.76	19.8541	1.4	1000	0.2	30	1000	0.2	0	0
0.761	19.9607	1.4	1000	0.2	30	1000	0.2	0	0
0.762	20.0568	1.4	1000	0.2	30	1000	0.2	0	0
0.763	20.137	1.4	1000	0.2	30	1000	0.2	0	0
0.764	20.1883	1.4	1000	0.2	30	1000	0.2	0	0
0.765	20.2129	1.4	1000	0.2	30	1000	0.2	0	0
0.766	20.2424	1.4	1000	0.2	30	1000	0.2	0	0
0.767	20.2775	1.4	1000	0.2	30	1000	0.2	0	0
0.768	20.3199	1.4	1000	0.2	30	1000	0.2	0	0
0.769	20.3702	1.4	1000	0.2	30	1000	0.2	0	0
0.77	20.4288	1.4	1000	0.2	30	1000	0.2	0	0
0.771	20.4935	1.4	1000	0.2	30	1000	0.2	0	0
0.772	20.5624	1.4	1000	0.2	30	1000	0.2	0	0
0.773	20.6335	1.4	1000	0.2	30	1000	0.2	0	0
0.774	20.7054	1.4	1000	0.2	30	1000	0.2	0	0
0.775	20.7779	1.4	1000	0.2	30	1000	0.2	0	0
0.776	20.8506	1.4	1000	0.2	30	1000	0.2	0	0
0.777	20.9234	1.4	1000	0.2	30	1000	0.2	0	0
0.778	20.9964	1.4	1000	0.2	30	1000	0.2	0	0
0.779	21.069	1.4	1000	0.2	30	1000	0.2	0	0
0.78	21.1415	1.4	1000	0.2	30	1000	0.2	0	0
0.781	21.2138	1.4	1000	0.2	30	1000	0.2	0	0
0.782	21.2862	1.4	1000	0.2	30	1000	0.2	0	0
0.783	21.3594	1.4	1000	0.2	30	1000	0.2	0	0
0.784	21.4329	1.4	1000	0.2	30	1000	0.2	0	0
0.785	21.5068	1.4	1000	0.2	30	1000	0.2	0	0
0.786	21.5814	1.4	1000	0.2	30	1000	0.2	0	0
0.787	21.6562	1.4	1000	0.2	30	1000	0.2	0	0
0.788	21.7311	1.4	1000	0.2	30	1000	0.2	0	0
0.789	21.8059	1.4	1000	0.2	30	1000	0.2	0	0
0.79	21.8799	1.4	1000	0.2	30	1000	0.2	0	0
0.791	21.9532	1.4	1000	0.2	30	1000	0.2	0	0
0.792	22.0258	1.4	1000	0.2	30	1000	0.2	0	0
0.793	22.0976	1.4	1000	0.2	30	1000	0.2	0	0
0.794	22.1691	1.4	1000	0.2	30	1000	0.2	0	0
0.795	22.2402	1.4	1000	0.2	30	1000	0.2	0	0
0.796	22.3108	1.4	1000	0.2	30	1000	0.2	0	0
0.797	22.3816	1.4	1000	0.2	30	1000	0.2	0	0
0.798	22.4528	1.4	1000	0.2	30	1000	0.2	0	0
0.799	22.524	1.4	1000	0.2	30	1000	0.2	0	0
0.8	22.5954	1.4	1000	0.2	30	1000	0.2	0	0
