*Name: Beech mid
Type: Leaf Spectrum
Particle Size: Solid
Wavelength Range: All

Origin: Remote Sensing Laboratories, University of Zurich

Description: abaxial reflectance, adaxial reflectance, and adaxial transmittance measured by ASD Integrating Sphere

Measurement: Hemispherical Conical Reflectance Factor HCRF

First Column:  X Wavelength (micrometers)
Second Column:  Y Reflectance (percent)
First X Value: 0.369
Last X Value: 2.493
Number of X Values: 2125
Additional Information:  None*

*Number of Lambda pertinent values : *  2125
*Lambda_min - Lambda_max : *  0.369 2.493
*Leaf parameters : Upper type of roughness [0/1 : cst/var] - Lower type of roughness* 0 0
*Lambda - Lower reflectance - Upper reflectance - Transmittance - Lower refraction index - Upper refracton index - Lower roughness [0;1] - Upper roughness - Lower roughness index [0.1;0.3] - Upper roughness index *
0.369	0.72372	0.79986	0.025823	1.4	1.4	0.9	0.9	0.2	0.2
0.37	0.89527	0.97194	0.099401	1.4	1.4	0.9	0.9	0.2	0.2
0.371	1.0821	1.1513	0.18413	1.4	1.4	0.9	0.9	0.2	0.2
0.372	1.2522	1.3207	0.26916	1.4	1.4	0.9	0.9	0.2	0.2
0.373	1.417	1.4922	0.33043	1.4	1.4	0.9	0.9	0.2	0.2
0.374	1.5818	1.6671	0.36255	1.4	1.4	0.9	0.9	0.2	0.2
0.375	1.7448	1.8265	0.38511	1.4	1.4	0.9	0.9	0.2	0.2
0.376	1.9396	2.0205	0.42643	1.4	1.4	0.9	0.9	0.2	0.2
0.377	2.1482	2.2324	0.47569	1.4	1.4	0.9	0.9	0.2	0.2
0.378	2.3332	2.4203	0.50777	1.4	1.4	0.9	0.9	0.2	0.2
0.379	2.5315	2.6104	0.57639	1.4	1.4	0.9	0.9	0.2	0.2
0.38	2.7111	2.7873	0.62406	1.4	1.4	0.9	0.9	0.2	0.2
0.381	2.8606	2.9471	0.62758	1.4	1.4	0.9	0.9	0.2	0.2
0.382	3.0715	3.1531	0.71407	1.4	1.4	0.9	0.9	0.2	0.2
0.383	3.2666	3.3355	0.79771	1.4	1.4	0.9	0.9	0.2	0.2
0.384	3.4246	3.4784	0.85681	1.4	1.4	0.9	0.9	0.2	0.2
0.385	3.5616	3.602	0.91484	1.4	1.4	0.9	0.9	0.2	0.2
0.386	3.6903	3.7138	0.95955	1.4	1.4	0.9	0.9	0.2	0.2
0.387	3.8121	3.8166	1.0111	1.4	1.4	0.9	0.9	0.2	0.2
0.388	3.9252	3.9107	1.0893	1.4	1.4	0.9	0.9	0.2	0.2
0.389	3.99	3.9568	1.1283	1.4	1.4	0.9	0.9	0.2	0.2
0.39	4.0011	3.9876	1.1862	1.4	1.4	0.9	0.9	0.2	0.2
0.391	4.0351	4.0388	1.3302	1.4	1.4	0.9	0.9	0.2	0.2
0.392	4.1022	4.1039	1.2616	1.4	1.4	0.9	0.9	0.2	0.2
0.393	4.1954	4.1946	1.1448	1.4	1.4	0.9	0.9	0.2	0.2
0.394	4.31	4.3172	1.1334	1.4	1.4	0.9	0.9	0.2	0.2
0.395	4.3766	4.3799	1.1084	1.4	1.4	0.9	0.9	0.2	0.2
0.396	4.3715	4.3657	1.0387	1.4	1.4	0.9	0.9	0.2	0.2
0.397	4.3301	4.3071	0.94854	1.4	1.4	0.9	0.9	0.2	0.2
0.398	4.4039	4.3515	0.96357	1.4	1.4	0.9	0.9	0.2	0.2
0.399	4.4295	4.372	0.96357	1.4	1.4	0.9	0.9	0.2	0.2
0.4	4.427	4.3768	0.92417	1.4	1.4	0.9	0.9	0.2	0.2
0.401	4.4574	4.4113	0.85996	1.4	1.4	0.9	0.9	0.2	0.2
0.402	4.5281	4.4822	0.89804	1.4	1.4	0.9	0.9	0.2	0.2
0.403	4.5726	4.5284	0.90481	1.4	1.4	0.9	0.9	0.2	0.2
0.404	4.5749	4.5348	0.85657	1.4	1.4	0.9	0.9	0.2	0.2
0.405	4.5823	4.5397	0.90559	1.4	1.4	0.9	0.9	0.2	0.2
0.406	4.5676	4.5228	0.89801	1.4	1.4	0.9	0.9	0.2	0.2
0.407	4.5428	4.5011	0.85506	1.4	1.4	0.9	0.9	0.2	0.2
0.408	4.5108	4.4836	0.81058	1.4	1.4	0.9	0.9	0.2	0.2
0.409	4.4982	4.4833	0.76118	1.4	1.4	0.9	0.9	0.2	0.2
0.41	4.4936	4.4825	0.70739	1.4	1.4	0.9	0.9	0.2	0.2
0.411	4.4965	4.4819	0.67142	1.4	1.4	0.9	0.9	0.2	0.2
0.412	4.5198	4.516	0.67401	1.4	1.4	0.9	0.9	0.2	0.2
0.413	4.5287	4.5341	0.67733	1.4	1.4	0.9	0.9	0.2	0.2
0.414	4.5216	4.531	0.67666	1.4	1.4	0.9	0.9	0.2	0.2
0.415	4.5286	4.5392	0.69241	1.4	1.4	0.9	0.9	0.2	0.2
0.416	4.5274	4.55	0.67004	1.4	1.4	0.9	0.9	0.2	0.2
0.417	4.5526	4.5809	0.67494	1.4	1.4	0.9	0.9	0.2	0.2
0.418	4.6263	4.6398	0.75404	1.4	1.4	0.9	0.9	0.2	0.2
0.419	4.6333	4.6417	0.75931	1.4	1.4	0.9	0.9	0.2	0.2
0.42	4.6346	4.6436	0.76012	1.4	1.4	0.9	0.9	0.2	0.2
0.421	4.6582	4.669	0.78171	1.4	1.4	0.9	0.9	0.2	0.2
0.422	4.6965	4.7045	0.80049	1.4	1.4	0.9	0.9	0.2	0.2
0.423	4.734	4.7424	0.83344	1.4	1.4	0.9	0.9	0.2	0.2
0.424	4.7628	4.7745	0.85923	1.4	1.4	0.9	0.9	0.2	0.2
0.425	4.7747	4.7906	0.84293	1.4	1.4	0.9	0.9	0.2	0.2
0.426	4.7932	4.8123	0.83414	1.4	1.4	0.9	0.9	0.2	0.2
0.427	4.8168	4.8358	0.84999	1.4	1.4	0.9	0.9	0.2	0.2
0.428	4.8406	4.8557	0.89152	1.4	1.4	0.9	0.9	0.2	0.2
0.429	4.8552	4.8678	0.91598	1.4	1.4	0.9	0.9	0.2	0.2
0.43	4.8653	4.8756	0.92748	1.4	1.4	0.9	0.9	0.2	0.2
0.431	4.8778	4.8863	0.93771	1.4	1.4	0.9	0.9	0.2	0.2
0.432	4.9023	4.9112	0.96529	1.4	1.4	0.9	0.9	0.2	0.2
0.433	4.9062	4.9154	0.97551	1.4	1.4	0.9	0.9	0.2	0.2
0.434	4.9045	4.9151	0.98524	1.4	1.4	0.9	0.9	0.2	0.2
0.435	4.9165	4.9306	1.0149	1.4	1.4	0.9	0.9	0.2	0.2
0.436	4.9273	4.943	1.0363	1.4	1.4	0.9	0.9	0.2	0.2
0.437	4.9487	4.965	1.0584	1.4	1.4	0.9	0.9	0.2	0.2
0.438	4.9789	4.995	1.0836	1.4	1.4	0.9	0.9	0.2	0.2
0.439	4.9862	5.0011	1.1007	1.4	1.4	0.9	0.9	0.2	0.2
0.44	4.9864	5	1.1207	1.4	1.4	0.9	0.9	0.2	0.2
0.441	4.9838	4.9962	1.1385	1.4	1.4	0.9	0.9	0.2	0.2
0.442	4.9785	4.9908	1.1395	1.4	1.4	0.9	0.9	0.2	0.2
0.443	4.9916	5.0038	1.1693	1.4	1.4	0.9	0.9	0.2	0.2
0.444	5.0078	5.0204	1.205	1.4	1.4	0.9	0.9	0.2	0.2
0.445	5.0122	5.0262	1.2238	1.4	1.4	0.9	0.9	0.2	0.2
0.446	5.0162	5.0287	1.234	1.4	1.4	0.9	0.9	0.2	0.2
0.447	5.0219	5.0339	1.254	1.4	1.4	0.9	0.9	0.2	0.2
0.448	5.0278	5.0414	1.2823	1.4	1.4	0.9	0.9	0.2	0.2
0.449	5.027	5.0419	1.2912	1.4	1.4	0.9	0.9	0.2	0.2
0.45	4.9767	4.972	1.1887	1.4	1.4	0.9	0.9	0.2	0.2
0.451	4.9798	4.9755	1.2025	1.4	1.4	0.9	0.9	0.2	0.2
0.452	5.0071	5.0079	1.2603	1.4	1.4	0.9	0.9	0.2	0.2
0.453	5.0473	5.0541	1.3329	1.4	1.4	0.9	0.9	0.2	0.2
0.454	5.0734	5.0857	1.3618	1.4	1.4	0.9	0.9	0.2	0.2
0.455	5.0725	5.091	1.3494	1.4	1.4	0.9	0.9	0.2	0.2
0.456	5.0653	5.0913	1.3434	1.4	1.4	0.9	0.9	0.2	0.2
0.457	5.0772	5.1047	1.3719	1.4	1.4	0.9	0.9	0.2	0.2
0.458	5.0745	5.1026	1.3695	1.4	1.4	0.9	0.9	0.2	0.2
0.459	5.0651	5.0922	1.3518	1.4	1.4	0.9	0.9	0.2	0.2
0.46	5.0503	5.0779	1.3318	1.4	1.4	0.9	0.9	0.2	0.2
0.461	5.0384	5.0663	1.3145	1.4	1.4	0.9	0.9	0.2	0.2
0.462	5.0337	5.0542	1.3011	1.4	1.4	0.9	0.9	0.2	0.2
0.463	5.0292	5.0436	1.2941	1.4	1.4	0.9	0.9	0.2	0.2
0.464	5.0168	5.0337	1.2837	1.4	1.4	0.9	0.9	0.2	0.2
0.465	5.0101	5.0288	1.298	1.4	1.4	0.9	0.9	0.2	0.2
0.466	5.0097	5.026	1.3303	1.4	1.4	0.9	0.9	0.2	0.2
0.467	5.0297	5.0437	1.3693	1.4	1.4	0.9	0.9	0.2	0.2
0.468	5.0492	5.0637	1.39	1.4	1.4	0.9	0.9	0.2	0.2
0.469	5.0649	5.0812	1.4063	1.4	1.4	0.9	0.9	0.2	0.2
0.47	5.0866	5.1007	1.4173	1.4	1.4	0.9	0.9	0.2	0.2
0.471	5.1225	5.1315	1.442	1.4	1.4	0.9	0.9	0.2	0.2
0.472	5.1472	5.1569	1.4581	1.4	1.4	0.9	0.9	0.2	0.2
0.473	5.1629	5.1773	1.4731	1.4	1.4	0.9	0.9	0.2	0.2
0.474	5.1665	5.1798	1.4774	1.4	1.4	0.9	0.9	0.2	0.2
0.475	5.1802	5.1863	1.4859	1.4	1.4	0.9	0.9	0.2	0.2
0.476	5.2099	5.2142	1.5158	1.4	1.4	0.9	0.9	0.2	0.2
0.477	5.2255	5.2348	1.533	1.4	1.4	0.9	0.9	0.2	0.2
0.478	5.2198	5.2349	1.5301	1.4	1.4	0.9	0.9	0.2	0.2
0.479	5.1992	5.2135	1.5222	1.4	1.4	0.9	0.9	0.2	0.2
0.48	5.1846	5.1984	1.5249	1.4	1.4	0.9	0.9	0.2	0.2
0.481	5.181	5.1967	1.5313	1.4	1.4	0.9	0.9	0.2	0.2
0.482	5.1703	5.1874	1.5336	1.4	1.4	0.9	0.9	0.2	0.2
0.483	5.1619	5.1769	1.5373	1.4	1.4	0.9	0.9	0.2	0.2
0.484	5.1672	5.1755	1.5414	1.4	1.4	0.9	0.9	0.2	0.2
0.485	5.1762	5.1801	1.555	1.4	1.4	0.9	0.9	0.2	0.2
0.486	5.176	5.1783	1.5626	1.4	1.4	0.9	0.9	0.2	0.2
0.487	5.1799	5.1774	1.5765	1.4	1.4	0.9	0.9	0.2	0.2
0.488	5.1814	5.1702	1.5784	1.4	1.4	0.9	0.9	0.2	0.2
0.489	5.194	5.1799	1.5858	1.4	1.4	0.9	0.9	0.2	0.2
0.49	5.2351	5.2248	1.6324	1.4	1.4	0.9	0.9	0.2	0.2
0.491	5.2555	5.2487	1.6455	1.4	1.4	0.9	0.9	0.2	0.2
0.492	5.2579	5.2518	1.6346	1.4	1.4	0.9	0.9	0.2	0.2
0.493	5.259	5.2551	1.6327	1.4	1.4	0.9	0.9	0.2	0.2
0.494	5.2664	5.2683	1.644	1.4	1.4	0.9	0.9	0.2	0.2
0.495	5.2751	5.2796	1.6615	1.4	1.4	0.9	0.9	0.2	0.2
0.496	5.2955	5.2973	1.689	1.4	1.4	0.9	0.9	0.2	0.2
0.497	5.3186	5.3167	1.7283	1.4	1.4	0.9	0.9	0.2	0.2
0.498	5.3433	5.337	1.7669	1.4	1.4	0.9	0.9	0.2	0.2
0.499	5.3639	5.3536	1.7989	1.4	1.4	0.9	0.9	0.2	0.2
0.5	5.3866	5.3734	1.8344	1.4	1.4	0.9	0.9	0.2	0.2
0.501	5.4146	5.3985	1.8843	1.4	1.4	0.9	0.9	0.2	0.2
0.502	5.4351	5.4198	1.9338	1.4	1.4	0.9	0.9	0.2	0.2
0.503	5.4646	5.4524	1.9994	1.4	1.4	0.9	0.9	0.2	0.2
0.504	5.5242	5.5154	2.0964	1.4	1.4	0.9	0.9	0.2	0.2
0.505	5.581	5.5748	2.1715	1.4	1.4	0.9	0.9	0.2	0.2
0.506	5.6274	5.6264	2.2421	1.4	1.4	0.9	0.9	0.2	0.2
0.507	5.6799	5.6854	2.3293	1.4	1.4	0.9	0.9	0.2	0.2
0.508	5.7382	5.7489	2.4197	1.4	1.4	0.9	0.9	0.2	0.2
0.509	5.8102	5.8247	2.5198	1.4	1.4	0.9	0.9	0.2	0.2
0.51	5.8852	5.9022	2.6252	1.4	1.4	0.9	0.9	0.2	0.2
0.511	5.9543	5.9755	2.737	1.4	1.4	0.9	0.9	0.2	0.2
0.512	6.0287	6.0522	2.8541	1.4	1.4	0.9	0.9	0.2	0.2
0.513	6.1216	6.1463	2.9837	1.4	1.4	0.9	0.9	0.2	0.2
0.514	6.2192	6.2445	3.1177	1.4	1.4	0.9	0.9	0.2	0.2
0.515	6.3063	6.332	3.248	1.4	1.4	0.9	0.9	0.2	0.2
0.516	6.3953	6.4209	3.3932	1.4	1.4	0.9	0.9	0.2	0.2
0.517	6.5096	6.5345	3.5674	1.4	1.4	0.9	0.9	0.2	0.2
0.518	6.6448	6.6695	3.7579	1.4	1.4	0.9	0.9	0.2	0.2
0.519	6.7761	6.8027	3.946	1.4	1.4	0.9	0.9	0.2	0.2
0.52	6.906	6.9371	4.1468	1.4	1.4	0.9	0.9	0.2	0.2
0.521	7.0475	7.0828	4.3596	1.4	1.4	0.9	0.9	0.2	0.2
0.522	7.1971	7.2357	4.5802	1.4	1.4	0.9	0.9	0.2	0.2
0.523	7.3478	7.3909	4.7983	1.4	1.4	0.9	0.9	0.2	0.2
0.524	7.4912	7.5379	5.0169	1.4	1.4	0.9	0.9	0.2	0.2
0.525	7.6344	7.6835	5.2424	1.4	1.4	0.9	0.9	0.2	0.2
0.526	7.7805	7.8304	5.4602	1.4	1.4	0.9	0.9	0.2	0.2
0.527	7.9318	7.9819	5.6698	1.4	1.4	0.9	0.9	0.2	0.2
0.528	8.0722	8.1212	5.8624	1.4	1.4	0.9	0.9	0.2	0.2
0.529	8.2045	8.2534	6.0532	1.4	1.4	0.9	0.9	0.2	0.2
0.53	8.3367	8.3858	6.2462	1.4	1.4	0.9	0.9	0.2	0.2
0.531	8.4705	8.5202	6.4347	1.4	1.4	0.9	0.9	0.2	0.2
0.532	8.5934	8.6444	6.607	1.4	1.4	0.9	0.9	0.2	0.2
0.533	8.7058	8.7573	6.7618	1.4	1.4	0.9	0.9	0.2	0.2
0.534	8.8176	8.8697	6.9162	1.4	1.4	0.9	0.9	0.2	0.2
0.535	8.9188	8.9727	7.057	1.4	1.4	0.9	0.9	0.2	0.2
0.536	9.0003	9.0551	7.1763	1.4	1.4	0.9	0.9	0.2	0.2
0.537	9.0684	9.1257	7.2793	1.4	1.4	0.9	0.9	0.2	0.2
0.538	9.1286	9.1878	7.3789	1.4	1.4	0.9	0.9	0.2	0.2
0.539	9.176	9.2367	7.4634	1.4	1.4	0.9	0.9	0.2	0.2
0.54	9.2135	9.2736	7.525	1.4	1.4	0.9	0.9	0.2	0.2
0.541	9.2453	9.3041	7.5792	1.4	1.4	0.9	0.9	0.2	0.2
0.542	9.2783	9.3371	7.6387	1.4	1.4	0.9	0.9	0.2	0.2
0.543	9.3065	9.3661	7.6958	1.4	1.4	0.9	0.9	0.2	0.2
0.544	9.3365	9.3955	7.7483	1.4	1.4	0.9	0.9	0.2	0.2
0.545	9.3743	9.432	7.8085	1.4	1.4	0.9	0.9	0.2	0.2
0.546	9.4112	9.4679	7.8703	1.4	1.4	0.9	0.9	0.2	0.2
0.547	9.4518	9.5069	7.9317	1.4	1.4	0.9	0.9	0.2	0.2
0.548	9.4917	9.5462	7.9891	1.4	1.4	0.9	0.9	0.2	0.2
0.549	9.5308	9.5863	8.0494	1.4	1.4	0.9	0.9	0.2	0.2
0.55	9.5637	9.6192	8.1066	1.4	1.4	0.9	0.9	0.2	0.2
0.551	9.5957	9.6519	8.1614	1.4	1.4	0.9	0.9	0.2	0.2
0.552	9.6213	9.6793	8.2086	1.4	1.4	0.9	0.9	0.2	0.2
0.553	9.6364	9.6955	8.2388	1.4	1.4	0.9	0.9	0.2	0.2
0.554	9.6459	9.7044	8.2586	1.4	1.4	0.9	0.9	0.2	0.2
0.555	9.6515	9.7111	8.2766	1.4	1.4	0.9	0.9	0.2	0.2
0.556	9.651	9.7123	8.287	1.4	1.4	0.9	0.9	0.2	0.2
0.557	9.6365	9.6986	8.2802	1.4	1.4	0.9	0.9	0.2	0.2
0.558	9.6152	9.6779	8.2675	1.4	1.4	0.9	0.9	0.2	0.2
0.559	9.5862	9.6472	8.2471	1.4	1.4	0.9	0.9	0.2	0.2
0.56	9.5423	9.6008	8.2074	1.4	1.4	0.9	0.9	0.2	0.2
0.561	9.493	9.5487	8.1531	1.4	1.4	0.9	0.9	0.2	0.2
0.562	9.4406	9.4948	8.0903	1.4	1.4	0.9	0.9	0.2	0.2
0.563	9.385	9.4391	8.0265	1.4	1.4	0.9	0.9	0.2	0.2
0.564	9.3212	9.3747	7.9527	1.4	1.4	0.9	0.9	0.2	0.2
0.565	9.2445	9.297	7.8616	1.4	1.4	0.9	0.9	0.2	0.2
0.566	9.1622	9.2137	7.758	1.4	1.4	0.9	0.9	0.2	0.2
0.567	9.0766	9.1265	7.6414	1.4	1.4	0.9	0.9	0.2	0.2
0.568	8.9826	9.032	7.515	1.4	1.4	0.9	0.9	0.2	0.2
0.569	8.8813	8.9324	7.3854	1.4	1.4	0.9	0.9	0.2	0.2
0.57	8.7748	8.8268	7.2493	1.4	1.4	0.9	0.9	0.2	0.2
0.571	8.6677	8.72	7.1129	1.4	1.4	0.9	0.9	0.2	0.2
0.572	8.5562	8.6093	6.9722	1.4	1.4	0.9	0.9	0.2	0.2
0.573	8.4451	8.4971	6.8276	1.4	1.4	0.9	0.9	0.2	0.2
0.574	8.3406	8.3909	6.6834	1.4	1.4	0.9	0.9	0.2	0.2
0.575	8.2433	8.292	6.5436	1.4	1.4	0.9	0.9	0.2	0.2
0.576	8.1534	8.2016	6.417	1.4	1.4	0.9	0.9	0.2	0.2
0.577	8.0696	8.1174	6.3033	1.4	1.4	0.9	0.9	0.2	0.2
0.578	7.9875	8.0344	6.1891	1.4	1.4	0.9	0.9	0.2	0.2
0.579	7.9062	7.9512	6.0713	1.4	1.4	0.9	0.9	0.2	0.2
0.58	7.8346	7.8771	5.9618	1.4	1.4	0.9	0.9	0.2	0.2
0.581	7.7722	7.8127	5.8675	1.4	1.4	0.9	0.9	0.2	0.2
0.582	7.7048	7.7445	5.7715	1.4	1.4	0.9	0.9	0.2	0.2
0.583	7.6387	7.6781	5.6799	1.4	1.4	0.9	0.9	0.2	0.2
0.584	7.58	7.6182	5.5974	1.4	1.4	0.9	0.9	0.2	0.2
0.585	7.528	7.5657	5.523	1.4	1.4	0.9	0.9	0.2	0.2
0.586	7.477	7.5149	5.4504	1.4	1.4	0.9	0.9	0.2	0.2
0.587	7.4313	7.4678	5.3828	1.4	1.4	0.9	0.9	0.2	0.2
0.588	7.385	7.4185	5.3143	1.4	1.4	0.9	0.9	0.2	0.2
0.589	7.3455	7.3763	5.2543	1.4	1.4	0.9	0.9	0.2	0.2
0.59	7.3154	7.3453	5.209	1.4	1.4	0.9	0.9	0.2	0.2
0.591	7.2889	7.3182	5.1715	1.4	1.4	0.9	0.9	0.2	0.2
0.592	7.2629	7.2916	5.1314	1.4	1.4	0.9	0.9	0.2	0.2
0.593	7.24	7.2677	5.095	1.4	1.4	0.9	0.9	0.2	0.2
0.594	7.2229	7.2493	5.0677	1.4	1.4	0.9	0.9	0.2	0.2
0.595	7.2108	7.2371	5.0494	1.4	1.4	0.9	0.9	0.2	0.2
0.596	7.1928	7.2198	5.0245	1.4	1.4	0.9	0.9	0.2	0.2
0.597	7.1755	7.2035	5.0034	1.4	1.4	0.9	0.9	0.2	0.2
0.598	7.1589	7.1872	4.9842	1.4	1.4	0.9	0.9	0.2	0.2
0.599	7.1411	7.1702	4.9659	1.4	1.4	0.9	0.9	0.2	0.2
0.6	7.121	7.15	4.9462	1.4	1.4	0.9	0.9	0.2	0.2
0.601	7.0987	7.1267	4.9201	1.4	1.4	0.9	0.9	0.2	0.2
0.602	7.0734	7.1006	4.8865	1.4	1.4	0.9	0.9	0.2	0.2
0.603	7.0549	7.0824	4.8569	1.4	1.4	0.9	0.9	0.2	0.2
0.604	7.0378	7.0651	4.8314	1.4	1.4	0.9	0.9	0.2	0.2
0.605	7.0189	7.0456	4.8065	1.4	1.4	0.9	0.9	0.2	0.2
0.606	6.9985	7.0248	4.7778	1.4	1.4	0.9	0.9	0.2	0.2
0.607	6.9748	7.0006	4.7443	1.4	1.4	0.9	0.9	0.2	0.2
0.608	6.9512	6.9773	4.7079	1.4	1.4	0.9	0.9	0.2	0.2
0.609	6.9287	6.9564	4.6711	1.4	1.4	0.9	0.9	0.2	0.2
0.61	6.9066	6.9355	4.6344	1.4	1.4	0.9	0.9	0.2	0.2
0.611	6.8754	6.9052	4.589	1.4	1.4	0.9	0.9	0.2	0.2
0.612	6.8406	6.8699	4.536	1.4	1.4	0.9	0.9	0.2	0.2
0.613	6.8084	6.8365	4.4825	1.4	1.4	0.9	0.9	0.2	0.2
0.614	6.774	6.8011	4.427	1.4	1.4	0.9	0.9	0.2	0.2
0.615	6.7387	6.7644	4.3647	1.4	1.4	0.9	0.9	0.2	0.2
0.616	6.7026	6.7264	4.2996	1.4	1.4	0.9	0.9	0.2	0.2
0.617	6.6659	6.6872	4.2392	1.4	1.4	0.9	0.9	0.2	0.2
0.618	6.6285	6.6471	4.1834	1.4	1.4	0.9	0.9	0.2	0.2
0.619	6.5936	6.6109	4.1305	1.4	1.4	0.9	0.9	0.2	0.2
0.62	6.5615	6.5782	4.0795	1.4	1.4	0.9	0.9	0.2	0.2
0.621	6.5258	6.5434	4.026	1.4	1.4	0.9	0.9	0.2	0.2
0.622	6.4951	6.5151	3.9789	1.4	1.4	0.9	0.9	0.2	0.2
0.623	6.4745	6.4965	3.9461	1.4	1.4	0.9	0.9	0.2	0.2
0.624	6.4599	6.4821	3.9214	1.4	1.4	0.9	0.9	0.2	0.2
0.625	6.4457	6.4673	3.8984	1.4	1.4	0.9	0.9	0.2	0.2
0.626	6.4394	6.4597	3.8819	1.4	1.4	0.9	0.9	0.2	0.2
0.627	6.4358	6.4546	3.868	1.4	1.4	0.9	0.9	0.2	0.2
0.628	6.4289	6.4471	3.8554	1.4	1.4	0.9	0.9	0.2	0.2
0.629	6.4236	6.4413	3.845	1.4	1.4	0.9	0.9	0.2	0.2
0.63	6.4242	6.4415	3.8454	1.4	1.4	0.9	0.9	0.2	0.2
0.631	6.427	6.4432	3.8519	1.4	1.4	0.9	0.9	0.2	0.2
0.632	6.4275	6.4434	3.8549	1.4	1.4	0.9	0.9	0.2	0.2
0.633	6.4227	6.4399	3.8504	1.4	1.4	0.9	0.9	0.2	0.2
0.634	6.4122	6.4307	3.8387	1.4	1.4	0.9	0.9	0.2	0.2
0.635	6.3948	6.4149	3.8188	1.4	1.4	0.9	0.9	0.2	0.2
0.636	6.38	6.4012	3.7989	1.4	1.4	0.9	0.9	0.2	0.2
0.637	6.3636	6.3852	3.7756	1.4	1.4	0.9	0.9	0.2	0.2
0.638	6.3436	6.3644	3.7441	1.4	1.4	0.9	0.9	0.2	0.2
0.639	6.3212	6.3409	3.7069	1.4	1.4	0.9	0.9	0.2	0.2
0.64	6.2872	6.3065	3.6568	1.4	1.4	0.9	0.9	0.2	0.2
0.641	6.2477	6.2666	3.5999	1.4	1.4	0.9	0.9	0.2	0.2
0.642	6.2085	6.2272	3.5417	1.4	1.4	0.9	0.9	0.2	0.2
0.643	6.1724	6.1911	3.4799	1.4	1.4	0.9	0.9	0.2	0.2
0.644	6.14	6.1584	3.4197	1.4	1.4	0.9	0.9	0.2	0.2
0.645	6.1059	6.1229	3.3521	1.4	1.4	0.9	0.9	0.2	0.2
0.646	6.0684	6.0838	3.2752	1.4	1.4	0.9	0.9	0.2	0.2
0.647	6.0295	6.0437	3.1996	1.4	1.4	0.9	0.9	0.2	0.2
0.648	5.9941	6.0059	3.1301	1.4	1.4	0.9	0.9	0.2	0.2
0.649	5.9651	5.9743	3.0662	1.4	1.4	0.9	0.9	0.2	0.2
0.65	5.9376	5.9442	3.0082	1.4	1.4	0.9	0.9	0.2	0.2
0.651	5.9079	5.9125	2.9538	1.4	1.4	0.9	0.9	0.2	0.2
0.652	5.8812	5.8843	2.9068	1.4	1.4	0.9	0.9	0.2	0.2
0.653	5.8619	5.8632	2.8724	1.4	1.4	0.9	0.9	0.2	0.2
0.654	5.8388	5.8399	2.8383	1.4	1.4	0.9	0.9	0.2	0.2
0.655	5.8208	5.8223	2.8095	1.4	1.4	0.9	0.9	0.2	0.2
0.656	5.8111	5.8133	2.7872	1.4	1.4	0.9	0.9	0.2	0.2
0.657	5.8006	5.804	2.7591	1.4	1.4	0.9	0.9	0.2	0.2
0.658	5.7874	5.7924	2.7282	1.4	1.4	0.9	0.9	0.2	0.2
0.659	5.7738	5.7812	2.6924	1.4	1.4	0.9	0.9	0.2	0.2
0.66	5.7563	5.7651	2.6482	1.4	1.4	0.9	0.9	0.2	0.2
0.661	5.7366	5.7462	2.6016	1.4	1.4	0.9	0.9	0.2	0.2
0.662	5.7154	5.725	2.5477	1.4	1.4	0.9	0.9	0.2	0.2
0.663	5.6935	5.7035	2.4939	1.4	1.4	0.9	0.9	0.2	0.2
0.664	5.6674	5.6771	2.4361	1.4	1.4	0.9	0.9	0.2	0.2
0.665	5.6406	5.6494	2.3727	1.4	1.4	0.9	0.9	0.2	0.2
0.666	5.6151	5.6227	2.3072	1.4	1.4	0.9	0.9	0.2	0.2
0.667	5.598	5.605	2.2488	1.4	1.4	0.9	0.9	0.2	0.2
0.668	5.5836	5.5917	2.1919	1.4	1.4	0.9	0.9	0.2	0.2
0.669	5.576	5.5847	2.1417	1.4	1.4	0.9	0.9	0.2	0.2
0.67	5.5783	5.588	2.1043	1.4	1.4	0.9	0.9	0.2	0.2
0.671	5.5819	5.5931	2.0691	1.4	1.4	0.9	0.9	0.2	0.2
0.672	5.5881	5.6014	2.036	1.4	1.4	0.9	0.9	0.2	0.2
0.673	5.5986	5.6154	2.0109	1.4	1.4	0.9	0.9	0.2	0.2
0.674	5.6068	5.6259	1.9849	1.4	1.4	0.9	0.9	0.2	0.2
0.675	5.6134	5.6339	1.9557	1.4	1.4	0.9	0.9	0.2	0.2
0.676	5.6279	5.65	1.9379	1.4	1.4	0.9	0.9	0.2	0.2
0.677	5.6434	5.6681	1.9272	1.4	1.4	0.9	0.9	0.2	0.2
0.678	5.6556	5.6824	1.9113	1.4	1.4	0.9	0.9	0.2	0.2
0.679	5.6683	5.6967	1.8934	1.4	1.4	0.9	0.9	0.2	0.2
0.68	5.6831	5.7133	1.878	1.4	1.4	0.9	0.9	0.2	0.2
0.681	5.7042	5.7369	1.8707	1.4	1.4	0.9	0.9	0.2	0.2
0.682	5.7308	5.7652	1.8698	1.4	1.4	0.9	0.9	0.2	0.2
0.683	5.7651	5.8009	1.8838	1.4	1.4	0.9	0.9	0.2	0.2
0.684	5.8077	5.8461	1.9166	1.4	1.4	0.9	0.9	0.2	0.2
0.685	5.8575	5.8977	1.9653	1.4	1.4	0.9	0.9	0.2	0.2
0.686	5.9131	5.955	2.0296	1.4	1.4	0.9	0.9	0.2	0.2
0.687	5.9782	6.0221	2.1183	1.4	1.4	0.9	0.9	0.2	0.2
0.688	6.0519	6.0973	2.2289	1.4	1.4	0.9	0.9	0.2	0.2
0.689	6.1328	6.1793	2.363	1.4	1.4	0.9	0.9	0.2	0.2
0.69	6.2323	6.2804	2.5353	1.4	1.4	0.9	0.9	0.2	0.2
0.691	6.3456	6.3957	2.7398	1.4	1.4	0.9	0.9	0.2	0.2
0.692	6.4781	6.5305	2.9839	1.4	1.4	0.9	0.9	0.2	0.2
0.693	6.6365	6.691	3.2726	1.4	1.4	0.9	0.9	0.2	0.2
0.694	6.8237	6.8808	3.6092	1.4	1.4	0.9	0.9	0.2	0.2
0.695	7.0431	7.1031	3.9955	1.4	1.4	0.9	0.9	0.2	0.2
0.696	7.2962	7.359	4.4331	1.4	1.4	0.9	0.9	0.2	0.2
0.697	7.5898	7.6561	4.9311	1.4	1.4	0.9	0.9	0.2	0.2
0.698	7.9253	7.9948	5.4853	1.4	1.4	0.9	0.9	0.2	0.2
0.699	8.3021	8.3745	6.0936	1.4	1.4	0.9	0.9	0.2	0.2
0.7	8.7182	8.794	6.7484	1.4	1.4	0.9	0.9	0.2	0.2
0.701	9.1724	9.2513	7.4447	1.4	1.4	0.9	0.9	0.2	0.2
0.702	9.6588	9.7413	8.1735	1.4	1.4	0.9	0.9	0.2	0.2
0.703	10.1694	10.2559	8.9236	1.4	1.4	0.9	0.9	0.2	0.2
0.704	10.7063	10.7968	9.6916	1.4	1.4	0.9	0.9	0.2	0.2
0.705	11.2649	11.3594	10.4692	1.4	1.4	0.9	0.9	0.2	0.2
0.706	11.8362	11.9357	11.2501	1.4	1.4	0.9	0.9	0.2	0.2
0.707	12.418	12.5229	12.0283	1.4	1.4	0.9	0.9	0.2	0.2
0.708	13.0096	13.1193	12.8023	1.4	1.4	0.9	0.9	0.2	0.2
0.709	13.6066	13.7213	13.5705	1.4	1.4	0.9	0.9	0.2	0.2
0.71	14.2084	14.3277	14.3317	1.4	1.4	0.9	0.9	0.2	0.2
0.711	14.8181	14.9414	15.0877	1.4	1.4	0.9	0.9	0.2	0.2
0.712	15.434	15.5612	15.8378	1.4	1.4	0.9	0.9	0.2	0.2
0.713	16.0556	16.1868	16.5851	1.4	1.4	0.9	0.9	0.2	0.2
0.714	16.6825	16.8177	17.3274	1.4	1.4	0.9	0.9	0.2	0.2
0.715	17.3137	17.4531	18.0654	1.4	1.4	0.9	0.9	0.2	0.2
0.716	17.9507	18.0948	18.8009	1.4	1.4	0.9	0.9	0.2	0.2
0.717	18.5926	18.7414	19.5322	1.4	1.4	0.9	0.9	0.2	0.2
0.718	19.2385	19.3921	20.2575	1.4	1.4	0.9	0.9	0.2	0.2
0.719	19.8869	20.046	20.9771	1.4	1.4	0.9	0.9	0.2	0.2
0.72	20.5355	20.7008	21.6917	1.4	1.4	0.9	0.9	0.2	0.2
0.721	21.1858	21.3569	22.4007	1.4	1.4	0.9	0.9	0.2	0.2
0.722	21.8369	22.0135	23.104	1.4	1.4	0.9	0.9	0.2	0.2
0.723	22.4844	22.6674	23.7997	1.4	1.4	0.9	0.9	0.2	0.2
0.724	23.1273	23.3166	24.4839	1.4	1.4	0.9	0.9	0.2	0.2
0.725	23.7637	23.9588	25.1544	1.4	1.4	0.9	0.9	0.2	0.2
0.726	24.3916	24.5925	25.8107	1.4	1.4	0.9	0.9	0.2	0.2
0.727	25.009	25.2158	26.4518	1.4	1.4	0.9	0.9	0.2	0.2
0.728	25.6128	25.8249	27.0738	1.4	1.4	0.9	0.9	0.2	0.2
0.729	26.1997	26.4169	27.6752	1.4	1.4	0.9	0.9	0.2	0.2
0.73	26.7712	26.9928	28.2563	1.4	1.4	0.9	0.9	0.2	0.2
0.731	27.3262	27.5511	28.8165	1.4	1.4	0.9	0.9	0.2	0.2
0.732	27.8609	28.0899	29.3552	1.4	1.4	0.9	0.9	0.2	0.2
0.733	28.3749	28.6084	29.8722	1.4	1.4	0.9	0.9	0.2	0.2
0.734	28.8682	29.1061	30.366	1.4	1.4	0.9	0.9	0.2	0.2
