*Name: Beech top
Type: Leaf Spectrum
Particle Size: Solid
Wavelength Range: All

Origin: Remote Sensing Laboratories, University of Zurich

Description: abaxial reflectance, adaxial reflectance, and adaxial transmittance measured by ASD Integrating Sphere

Measurement: Hemispherical Conical Reflectance Factor HCRF

First Column:  X Wavelength (micrometers)
Second Column:  Y Reflectance (percent)
First X Value: 0.369
Last X Value: 2.493
Number of X Values: 2125
Additional Information:  None*

*Number of Lambda pertinent values : *  2125
*Lambda_min - Lambda_max : *  0.369 2.493
*Leaf parameters : Upper type of roughness [0/1 : cst/var] - Lower type of roughness* 0 0
*Lambda - Lower reflectance - Upper reflectance - Transmittance - Lower refraction index - Upper refracton index - Lower roughness [0;1] - Upper roughness - Lower roughness index [0.1;0.3] - Upper roughness index *
0.369	1.1233	0.74508	-0.65173	1.4	1.4	0.9	0.9	0.2	0.2
0.37	1.3099	0.8955	-0.70661	1.4	1.4	0.9	0.9	0.2	0.2
0.371	1.5091	1.0543	-0.75906	1.4	1.4	0.9	0.9	0.2	0.2
0.372	1.7035	1.2089	-0.81703	1.4	1.4	0.9	0.9	0.2	0.2
0.373	1.8934	1.3609	-0.8721	1.4	1.4	0.9	0.9	0.2	0.2
0.374	2.0764	1.5097	-0.9233	1.4	1.4	0.9	0.9	0.2	0.2
0.375	2.2423	1.6485	-0.9852	1.4	1.4	0.9	0.9	0.2	0.2
0.376	2.4261	1.8157	-1.0068	1.4	1.4	0.9	0.9	0.2	0.2
0.377	2.6179	2.0005	-0.9981	1.4	1.4	0.9	0.9	0.2	0.2
0.378	2.7907	2.1737	-0.99192	1.4	1.4	0.9	0.9	0.2	0.2
0.379	2.9629	2.3534	-0.96751	1.4	1.4	0.9	0.9	0.2	0.2
0.38	3.1167	2.5209	-0.94367	1.4	1.4	0.9	0.9	0.2	0.2
0.381	3.2463	2.6699	-0.92386	1.4	1.4	0.9	0.9	0.2	0.2
0.382	3.4049	2.8556	-0.8347	1.4	1.4	0.9	0.9	0.2	0.2
0.383	3.543	3.0178	-0.74438	1.4	1.4	0.9	0.9	0.2	0.2
0.384	3.6469	3.1454	-0.66654	1.4	1.4	0.9	0.9	0.2	0.2
0.385	3.7268	3.2626	-0.57789	1.4	1.4	0.9	0.9	0.2	0.2
0.386	3.7875	3.3696	-0.47122	1.4	1.4	0.9	0.9	0.2	0.2
0.387	3.8312	3.4679	-0.33653	1.4	1.4	0.9	0.9	0.2	0.2
0.388	3.8583	3.5574	-0.16659	1.4	1.4	0.9	0.9	0.2	0.2
0.389	3.8332	3.6008	-0.007993	1.4	1.4	0.9	0.9	0.2	0.2
0.39	3.8484	3.6422	0.02196	1.4	1.4	0.9	0.9	0.2	0.2
0.391	3.8807	3.7041	0.085015	1.4	1.4	0.9	0.9	0.2	0.2
0.392	3.9618	3.7675	0.11465	1.4	1.4	0.9	0.9	0.2	0.2
0.393	4.0634	3.8513	0.16141	1.4	1.4	0.9	0.9	0.2	0.2
0.394	4.1632	3.968	0.26334	1.4	1.4	0.9	0.9	0.2	0.2
0.395	4.2071	4.0424	0.32652	1.4	1.4	0.9	0.9	0.2	0.2
0.396	4.1927	4.0503	0.30852	1.4	1.4	0.9	0.9	0.2	0.2
0.397	4.152	4.0167	0.24225	1.4	1.4	0.9	0.9	0.2	0.2
0.398	4.2043	4.0624	0.30558	1.4	1.4	0.9	0.9	0.2	0.2
0.399	4.2289	4.088	0.32782	1.4	1.4	0.9	0.9	0.2	0.2
0.4	4.2366	4.0977	0.32695	1.4	1.4	0.9	0.9	0.2	0.2
0.401	4.2699	4.1294	0.36637	1.4	1.4	0.9	0.9	0.2	0.2
0.402	4.3266	4.1903	0.42695	1.4	1.4	0.9	0.9	0.2	0.2
0.403	4.3686	4.2273	0.45137	1.4	1.4	0.9	0.9	0.2	0.2
0.404	4.3842	4.2288	0.43426	1.4	1.4	0.9	0.9	0.2	0.2
0.405	4.3853	4.2355	0.44164	1.4	1.4	0.9	0.9	0.2	0.2
0.406	4.3787	4.2266	0.4239	1.4	1.4	0.9	0.9	0.2	0.2
0.407	4.3722	4.2118	0.39547	1.4	1.4	0.9	0.9	0.2	0.2
0.408	4.3596	4.1972	0.37213	1.4	1.4	0.9	0.9	0.2	0.2
0.409	4.353	4.1925	0.36622	1.4	1.4	0.9	0.9	0.2	0.2
0.41	4.3463	4.1916	0.36112	1.4	1.4	0.9	0.9	0.2	0.2
0.411	4.3435	4.1995	0.35907	1.4	1.4	0.9	0.9	0.2	0.2
0.412	4.3655	4.2368	0.39251	1.4	1.4	0.9	0.9	0.2	0.2
0.413	4.3797	4.2629	0.41582	1.4	1.4	0.9	0.9	0.2	0.2
0.414	4.3802	4.2726	0.41946	1.4	1.4	0.9	0.9	0.2	0.2
0.415	4.3851	4.2876	0.4259	1.4	1.4	0.9	0.9	0.2	0.2
0.416	4.3909	4.2991	0.42999	1.4	1.4	0.9	0.9	0.2	0.2
0.417	4.4142	4.3256	0.45615	1.4	1.4	0.9	0.9	0.2	0.2
0.418	4.465	4.3776	0.51801	1.4	1.4	0.9	0.9	0.2	0.2
0.419	4.4737	4.3824	0.5252	1.4	1.4	0.9	0.9	0.2	0.2
0.42	4.4787	4.3911	0.53506	1.4	1.4	0.9	0.9	0.2	0.2
0.421	4.4974	4.4225	0.57087	1.4	1.4	0.9	0.9	0.2	0.2
0.422	4.5246	4.4573	0.61815	1.4	1.4	0.9	0.9	0.2	0.2
0.423	4.5538	4.4906	0.67234	1.4	1.4	0.9	0.9	0.2	0.2
0.424	4.5774	4.5157	0.71906	1.4	1.4	0.9	0.9	0.2	0.2
0.425	4.5866	4.524	0.73913	1.4	1.4	0.9	0.9	0.2	0.2
0.426	4.6048	4.5391	0.76433	1.4	1.4	0.9	0.9	0.2	0.2
0.427	4.629	4.5616	0.79728	1.4	1.4	0.9	0.9	0.2	0.2
0.428	4.654	4.5883	0.83523	1.4	1.4	0.9	0.9	0.2	0.2
0.429	4.6711	4.6087	0.86487	1.4	1.4	0.9	0.9	0.2	0.2
0.43	4.682	4.6225	0.88648	1.4	1.4	0.9	0.9	0.2	0.2
0.431	4.6941	4.6361	0.90874	1.4	1.4	0.9	0.9	0.2	0.2
0.432	4.7201	4.6617	0.94776	1.4	1.4	0.9	0.9	0.2	0.2
0.433	4.7285	4.6712	0.96363	1.4	1.4	0.9	0.9	0.2	0.2
0.434	4.7318	4.6762	0.97419	1.4	1.4	0.9	0.9	0.2	0.2
0.435	4.7468	4.6914	1.0019	1.4	1.4	0.9	0.9	0.2	0.2
0.436	4.7575	4.701	1.0223	1.4	1.4	0.9	0.9	0.2	0.2
0.437	4.7739	4.7197	1.0505	1.4	1.4	0.9	0.9	0.2	0.2
0.438	4.7956	4.748	1.0873	1.4	1.4	0.9	0.9	0.2	0.2
0.439	4.8015	4.7563	1.104	1.4	1.4	0.9	0.9	0.2	0.2
0.44	4.8031	4.7583	1.1139	1.4	1.4	0.9	0.9	0.2	0.2
0.441	4.8031	4.7588	1.1199	1.4	1.4	0.9	0.9	0.2	0.2
0.442	4.8012	4.7598	1.1208	1.4	1.4	0.9	0.9	0.2	0.2
0.443	4.8127	4.7746	1.1413	1.4	1.4	0.9	0.9	0.2	0.2
0.444	4.8275	4.7924	1.1688	1.4	1.4	0.9	0.9	0.2	0.2
0.445	4.8351	4.8024	1.1894	1.4	1.4	0.9	0.9	0.2	0.2
0.446	4.8409	4.8099	1.205	1.4	1.4	0.9	0.9	0.2	0.2
0.447	4.8475	4.818	1.2219	1.4	1.4	0.9	0.9	0.2	0.2
0.448	4.8546	4.8257	1.2401	1.4	1.4	0.9	0.9	0.2	0.2
0.449	4.8568	4.8263	1.2519	1.4	1.4	0.9	0.9	0.2	0.2
0.45	4.8095	4.7799	1.178	1.4	1.4	0.9	0.9	0.2	0.2
0.451	4.8149	4.7838	1.1954	1.4	1.4	0.9	0.9	0.2	0.2
0.452	4.8423	4.8106	1.2414	1.4	1.4	0.9	0.9	0.2	0.2
0.453	4.8818	4.8477	1.2999	1.4	1.4	0.9	0.9	0.2	0.2
0.454	4.9107	4.8732	1.3442	1.4	1.4	0.9	0.9	0.2	0.2
0.455	4.9151	4.8776	1.3662	1.4	1.4	0.9	0.9	0.2	0.2
0.456	4.915	4.8814	1.3879	1.4	1.4	0.9	0.9	0.2	0.2
0.457	4.9304	4.9019	1.4295	1.4	1.4	0.9	0.9	0.2	0.2
0.458	4.9326	4.9042	1.4481	1.4	1.4	0.9	0.9	0.2	0.2
0.459	4.9287	4.8952	1.4537	1.4	1.4	0.9	0.9	0.2	0.2
0.46	4.919	4.8809	1.4511	1.4	1.4	0.9	0.9	0.2	0.2
0.461	4.9082	4.8706	1.4507	1.4	1.4	0.9	0.9	0.2	0.2
0.462	4.8983	4.8626	1.4489	1.4	1.4	0.9	0.9	0.2	0.2
0.463	4.8918	4.8554	1.4464	1.4	1.4	0.9	0.9	0.2	0.2
0.464	4.8841	4.8458	1.4365	1.4	1.4	0.9	0.9	0.2	0.2
0.465	4.88	4.8429	1.4304	1.4	1.4	0.9	0.9	0.2	0.2
0.466	4.8812	4.8467	1.433	1.4	1.4	0.9	0.9	0.2	0.2
0.467	4.8991	4.8696	1.4565	1.4	1.4	0.9	0.9	0.2	0.2
0.468	4.92	4.8943	1.4858	1.4	1.4	0.9	0.9	0.2	0.2
0.469	4.9395	4.914	1.5136	1.4	1.4	0.9	0.9	0.2	0.2
0.47	4.9573	4.9351	1.5388	1.4	1.4	0.9	0.9	0.2	0.2
0.471	4.9868	4.9654	1.5758	1.4	1.4	0.9	0.9	0.2	0.2
0.472	5.011	4.9876	1.6041	1.4	1.4	0.9	0.9	0.2	0.2
0.473	5.027	5.0045	1.6261	1.4	1.4	0.9	0.9	0.2	0.2
0.474	5.0276	5.0091	1.6313	1.4	1.4	0.9	0.9	0.2	0.2
0.475	5.0329	5.0184	1.6438	1.4	1.4	0.9	0.9	0.2	0.2
0.476	5.0547	5.0425	1.6763	1.4	1.4	0.9	0.9	0.2	0.2
0.477	5.068	5.0554	1.6941	1.4	1.4	0.9	0.9	0.2	0.2
0.478	5.0637	5.0511	1.6859	1.4	1.4	0.9	0.9	0.2	0.2
0.479	5.0477	5.035	1.6637	1.4	1.4	0.9	0.9	0.2	0.2
0.48	5.0401	5.0246	1.657	1.4	1.4	0.9	0.9	0.2	0.2
0.481	5.0417	5.0252	1.6606	1.4	1.4	0.9	0.9	0.2	0.2
0.482	5.039	5.019	1.6587	1.4	1.4	0.9	0.9	0.2	0.2
0.483	5.0356	5.0108	1.6605	1.4	1.4	0.9	0.9	0.2	0.2
0.484	5.0374	5.0126	1.6682	1.4	1.4	0.9	0.9	0.2	0.2
0.485	5.0458	5.0194	1.6831	1.4	1.4	0.9	0.9	0.2	0.2
0.486	5.0469	5.0211	1.6918	1.4	1.4	0.9	0.9	0.2	0.2
0.487	5.0471	5.0254	1.7043	1.4	1.4	0.9	0.9	0.2	0.2
0.488	5.0436	5.0246	1.7112	1.4	1.4	0.9	0.9	0.2	0.2
0.489	5.0527	5.0353	1.7327	1.4	1.4	0.9	0.9	0.2	0.2
0.49	5.0885	5.0732	1.7838	1.4	1.4	0.9	0.9	0.2	0.2
0.491	5.1071	5.0951	1.8115	1.4	1.4	0.9	0.9	0.2	0.2
0.492	5.1129	5.1047	1.8222	1.4	1.4	0.9	0.9	0.2	0.2
0.493	5.1224	5.113	1.8343	1.4	1.4	0.9	0.9	0.2	0.2
0.494	5.1405	5.1288	1.863	1.4	1.4	0.9	0.9	0.2	0.2
0.495	5.1575	5.1465	1.8922	1.4	1.4	0.9	0.9	0.2	0.2
0.496	5.181	5.1689	1.9312	1.4	1.4	0.9	0.9	0.2	0.2
0.497	5.2071	5.1903	1.9753	1.4	1.4	0.9	0.9	0.2	0.2
0.498	5.2338	5.2126	2.018	1.4	1.4	0.9	0.9	0.2	0.2
0.499	5.2556	5.2319	2.0576	1.4	1.4	0.9	0.9	0.2	0.2
0.5	5.2792	5.2562	2.1035	1.4	1.4	0.9	0.9	0.2	0.2
0.501	5.3078	5.2856	2.1598	1.4	1.4	0.9	0.9	0.2	0.2
0.502	5.3334	5.3107	2.2144	1.4	1.4	0.9	0.9	0.2	0.2
0.503	5.3691	5.3467	2.281	1.4	1.4	0.9	0.9	0.2	0.2
0.504	5.4298	5.4089	2.3766	1.4	1.4	0.9	0.9	0.2	0.2
0.505	5.4884	5.4701	2.4711	1.4	1.4	0.9	0.9	0.2	0.2
0.506	5.5409	5.5264	2.559	1.4	1.4	0.9	0.9	0.2	0.2
0.507	5.6041	5.589	2.6581	1.4	1.4	0.9	0.9	0.2	0.2
0.508	5.6741	5.659	2.7707	1.4	1.4	0.9	0.9	0.2	0.2
0.509	5.7558	5.7398	2.899	1.4	1.4	0.9	0.9	0.2	0.2
0.51	5.8406	5.821	3.0282	1.4	1.4	0.9	0.9	0.2	0.2
0.511	5.9243	5.9006	3.1556	1.4	1.4	0.9	0.9	0.2	0.2
0.512	6.0137	5.9874	3.2926	1.4	1.4	0.9	0.9	0.2	0.2
0.513	6.1174	6.09	3.4509	1.4	1.4	0.9	0.9	0.2	0.2
0.514	6.2274	6.1993	3.6188	1.4	1.4	0.9	0.9	0.2	0.2
0.515	6.3324	6.3008	3.7827	1.4	1.4	0.9	0.9	0.2	0.2
0.516	6.4418	6.4048	3.9552	1.4	1.4	0.9	0.9	0.2	0.2
0.517	6.5724	6.5313	4.1558	1.4	1.4	0.9	0.9	0.2	0.2
0.518	6.7206	6.6746	4.3788	1.4	1.4	0.9	0.9	0.2	0.2
0.519	6.8687	6.817	4.6017	1.4	1.4	0.9	0.9	0.2	0.2
0.52	7.0202	6.9636	4.8322	1.4	1.4	0.9	0.9	0.2	0.2
0.521	7.1856	7.1218	5.0812	1.4	1.4	0.9	0.9	0.2	0.2
0.522	7.358	7.2873	5.3395	1.4	1.4	0.9	0.9	0.2	0.2
0.523	7.533	7.4543	5.5983	1.4	1.4	0.9	0.9	0.2	0.2
0.524	7.702	7.6159	5.8474	1.4	1.4	0.9	0.9	0.2	0.2
0.525	7.8706	7.7796	6.096	1.4	1.4	0.9	0.9	0.2	0.2
0.526	8.0409	7.9451	6.3431	1.4	1.4	0.9	0.9	0.2	0.2
0.527	8.2129	8.1129	6.5906	1.4	1.4	0.9	0.9	0.2	0.2
0.528	8.3753	8.2714	6.8239	1.4	1.4	0.9	0.9	0.2	0.2
0.529	8.5293	8.4215	7.045	1.4	1.4	0.9	0.9	0.2	0.2
0.53	8.6818	8.5707	7.264	1.4	1.4	0.9	0.9	0.2	0.2
0.531	8.8335	8.7202	7.4806	1.4	1.4	0.9	0.9	0.2	0.2
0.532	8.9748	8.8586	7.6819	1.4	1.4	0.9	0.9	0.2	0.2
0.533	9.1061	8.9865	7.8695	1.4	1.4	0.9	0.9	0.2	0.2
0.534	9.235	9.1135	8.0554	1.4	1.4	0.9	0.9	0.2	0.2
0.535	9.3532	9.2305	8.2266	1.4	1.4	0.9	0.9	0.2	0.2
0.536	9.4526	9.3291	8.3735	1.4	1.4	0.9	0.9	0.2	0.2
0.537	9.5414	9.4153	8.5043	1.4	1.4	0.9	0.9	0.2	0.2
0.538	9.6215	9.4935	8.6236	1.4	1.4	0.9	0.9	0.2	0.2
0.539	9.6868	9.5586	8.7252	1.4	1.4	0.9	0.9	0.2	0.2
0.54	9.742	9.6128	8.8112	1.4	1.4	0.9	0.9	0.2	0.2
0.541	9.7909	9.6615	8.8896	1.4	1.4	0.9	0.9	0.2	0.2
0.542	9.8394	9.7095	8.9675	1.4	1.4	0.9	0.9	0.2	0.2
0.543	9.8815	9.7517	9.0365	1.4	1.4	0.9	0.9	0.2	0.2
0.544	9.9242	9.7951	9.1066	1.4	1.4	0.9	0.9	0.2	0.2
0.545	9.9727	9.8441	9.1844	1.4	1.4	0.9	0.9	0.2	0.2
0.546	10.0191	9.8924	9.2601	1.4	1.4	0.9	0.9	0.2	0.2
0.547	10.0672	9.9435	9.3384	1.4	1.4	0.9	0.9	0.2	0.2
0.548	10.1149	9.9936	9.4153	1.4	1.4	0.9	0.9	0.2	0.2
0.549	10.1606	10.0434	9.4914	1.4	1.4	0.9	0.9	0.2	0.2
0.55	10.2008	10.0875	9.562	1.4	1.4	0.9	0.9	0.2	0.2
0.551	10.2418	10.1299	9.6314	1.4	1.4	0.9	0.9	0.2	0.2
0.552	10.2765	10.1663	9.6922	1.4	1.4	0.9	0.9	0.2	0.2
0.553	10.2995	10.192	9.738	1.4	1.4	0.9	0.9	0.2	0.2
0.554	10.3166	10.2114	9.7745	1.4	1.4	0.9	0.9	0.2	0.2
0.555	10.3295	10.2267	9.806	1.4	1.4	0.9	0.9	0.2	0.2
0.556	10.335	10.2333	9.8276	1.4	1.4	0.9	0.9	0.2	0.2
0.557	10.3262	10.2253	9.8295	1.4	1.4	0.9	0.9	0.2	0.2
0.558	10.3105	10.2102	9.8214	1.4	1.4	0.9	0.9	0.2	0.2
0.559	10.2854	10.1861	9.8011	1.4	1.4	0.9	0.9	0.2	0.2
0.56	10.2448	10.1478	9.7604	1.4	1.4	0.9	0.9	0.2	0.2
0.561	10.1973	10.1024	9.7098	1.4	1.4	0.9	0.9	0.2	0.2
0.562	10.1458	10.0514	9.6518	1.4	1.4	0.9	0.9	0.2	0.2
0.563	10.0893	9.9966	9.5868	1.4	1.4	0.9	0.9	0.2	0.2
0.564	10.0249	9.9333	9.5097	1.4	1.4	0.9	0.9	0.2	0.2
0.565	9.9479	9.8583	9.416	1.4	1.4	0.9	0.9	0.2	0.2
0.566	9.8638	9.7776	9.3112	1.4	1.4	0.9	0.9	0.2	0.2
0.567	9.7746	9.692	9.1975	1.4	1.4	0.9	0.9	0.2	0.2
0.568	9.6769	9.5974	9.0718	1.4	1.4	0.9	0.9	0.2	0.2
0.569	9.5726	9.4956	8.9374	1.4	1.4	0.9	0.9	0.2	0.2
0.57	9.4625	9.3866	8.7934	1.4	1.4	0.9	0.9	0.2	0.2
0.571	9.3508	9.2759	8.6456	1.4	1.4	0.9	0.9	0.2	0.2
0.572	9.2328	9.1596	8.4894	1.4	1.4	0.9	0.9	0.2	0.2
0.573	9.1119	9.0413	8.3297	1.4	1.4	0.9	0.9	0.2	0.2
0.574	8.9958	8.9278	8.1759	1.4	1.4	0.9	0.9	0.2	0.2
0.575	8.8861	8.8197	8.0302	1.4	1.4	0.9	0.9	0.2	0.2
0.576	8.7841	8.7177	7.8923	1.4	1.4	0.9	0.9	0.2	0.2
0.577	8.688	8.6224	7.7611	1.4	1.4	0.9	0.9	0.2	0.2
0.578	8.5941	8.5296	7.6319	1.4	1.4	0.9	0.9	0.2	0.2
0.579	8.5019	8.4396	7.5051	1.4	1.4	0.9	0.9	0.2	0.2
0.58	8.4191	8.3595	7.3889	1.4	1.4	0.9	0.9	0.2	0.2
0.581	8.3457	8.2888	7.2838	1.4	1.4	0.9	0.9	0.2	0.2
0.582	8.2703	8.2151	7.1762	1.4	1.4	0.9	0.9	0.2	0.2
0.583	8.1981	8.1441	7.0733	1.4	1.4	0.9	0.9	0.2	0.2
0.584	8.1334	8.0803	6.9803	1.4	1.4	0.9	0.9	0.2	0.2
0.585	8.0753	8.0224	6.8943	1.4	1.4	0.9	0.9	0.2	0.2
0.586	8.0174	7.9649	6.81	1.4	1.4	0.9	0.9	0.2	0.2
0.587	7.9643	7.9125	6.7343	1.4	1.4	0.9	0.9	0.2	0.2
0.588	7.9122	7.8597	6.6602	1.4	1.4	0.9	0.9	0.2	0.2
0.589	7.8667	7.8136	6.5968	1.4	1.4	0.9	0.9	0.2	0.2
0.59	7.8304	7.7778	6.5466	1.4	1.4	0.9	0.9	0.2	0.2
0.591	7.7996	7.7467	6.5031	1.4	1.4	0.9	0.9	0.2	0.2
0.592	7.7699	7.7172	6.4617	1.4	1.4	0.9	0.9	0.2	0.2
0.593	7.743	7.6919	6.4254	1.4	1.4	0.9	0.9	0.2	0.2
0.594	7.7213	7.6726	6.3973	1.4	1.4	0.9	0.9	0.2	0.2
0.595	7.7057	7.6583	6.3766	1.4	1.4	0.9	0.9	0.2	0.2
0.596	7.6868	7.6392	6.3514	1.4	1.4	0.9	0.9	0.2	0.2
0.597	7.6693	7.6212	6.3281	1.4	1.4	0.9	0.9	0.2	0.2
0.598	7.6534	7.6046	6.3071	1.4	1.4	0.9	0.9	0.2	0.2
0.599	7.6366	7.587	6.2843	1.4	1.4	0.9	0.9	0.2	0.2
0.6	7.6164	7.5668	6.2591	1.4	1.4	0.9	0.9	0.2	0.2
0.601	7.5936	7.545	6.2316	1.4	1.4	0.9	0.9	0.2	0.2
0.602	7.5688	7.5204	6.1984	1.4	1.4	0.9	0.9	0.2	0.2
0.603	7.5486	7.5016	6.1703	1.4	1.4	0.9	0.9	0.2	0.2
0.604	7.5284	7.4833	6.1418	1.4	1.4	0.9	0.9	0.2	0.2
0.605	7.5059	7.4623	6.1096	1.4	1.4	0.9	0.9	0.2	0.2
0.606	7.4796	7.4385	6.0725	1.4	1.4	0.9	0.9	0.2	0.2
0.607	7.449	7.41	6.0286	1.4	1.4	0.9	0.9	0.2	0.2
0.608	7.4178	7.3798	5.9821	1.4	1.4	0.9	0.9	0.2	0.2
0.609	7.3878	7.3495	5.9343	1.4	1.4	0.9	0.9	0.2	0.2
0.61	7.3572	7.3182	5.8845	1.4	1.4	0.9	0.9	0.2	0.2
0.611	7.318	7.2788	5.8231	1.4	1.4	0.9	0.9	0.2	0.2
0.612	7.2752	7.2358	5.7572	1.4	1.4	0.9	0.9	0.2	0.2
0.613	7.2335	7.1938	5.6923	1.4	1.4	0.9	0.9	0.2	0.2
0.614	7.1891	7.1492	5.6236	1.4	1.4	0.9	0.9	0.2	0.2
0.615	7.1441	7.105	5.5525	1.4	1.4	0.9	0.9	0.2	0.2
0.616	7.0987	7.0602	5.4783	1.4	1.4	0.9	0.9	0.2	0.2
0.617	7.0536	7.0145	5.4043	1.4	1.4	0.9	0.9	0.2	0.2
0.618	7.008	6.9689	5.3324	1.4	1.4	0.9	0.9	0.2	0.2
0.619	6.9648	6.9266	5.2658	1.4	1.4	0.9	0.9	0.2	0.2
0.62	6.9244	6.8869	5.2027	1.4	1.4	0.9	0.9	0.2	0.2
0.621	6.8833	6.8454	5.1391	1.4	1.4	0.9	0.9	0.2	0.2
0.622	6.8486	6.8101	5.0843	1.4	1.4	0.9	0.9	0.2	0.2
0.623	6.8244	6.7855	5.043	1.4	1.4	0.9	0.9	0.2	0.2
0.624	6.805	6.7667	5.01	1.4	1.4	0.9	0.9	0.2	0.2
0.625	6.7863	6.7492	4.9796	1.4	1.4	0.9	0.9	0.2	0.2
0.626	6.7751	6.7388	4.9597	1.4	1.4	0.9	0.9	0.2	0.2
0.627	6.7665	6.7317	4.9451	1.4	1.4	0.9	0.9	0.2	0.2
0.628	6.7563	6.7232	4.9294	1.4	1.4	0.9	0.9	0.2	0.2
0.629	6.7488	6.7172	4.9174	1.4	1.4	0.9	0.9	0.2	0.2
0.63	6.7468	6.7169	4.9146	1.4	1.4	0.9	0.9	0.2	0.2
0.631	6.7478	6.7186	4.9168	1.4	1.4	0.9	0.9	0.2	0.2
0.632	6.7474	6.7191	4.9179	1.4	1.4	0.9	0.9	0.2	0.2
0.633	6.7428	6.7141	4.9129	1.4	1.4	0.9	0.9	0.2	0.2
0.634	6.733	6.7037	4.9013	1.4	1.4	0.9	0.9	0.2	0.2
0.635	6.7174	6.6874	4.8822	1.4	1.4	0.9	0.9	0.2	0.2
0.636	6.7032	6.6728	4.8619	1.4	1.4	0.9	0.9	0.2	0.2
0.637	6.6861	6.655	4.8366	1.4	1.4	0.9	0.9	0.2	0.2
0.638	6.6629	6.6314	4.8022	1.4	1.4	0.9	0.9	0.2	0.2
0.639	6.6364	6.6041	4.7597	1.4	1.4	0.9	0.9	0.2	0.2
0.64	6.5991	6.5658	4.7001	1.4	1.4	0.9	0.9	0.2	0.2
0.641	6.5558	6.5224	4.6305	1.4	1.4	0.9	0.9	0.2	0.2
0.642	6.5119	6.4783	4.5575	1.4	1.4	0.9	0.9	0.2	0.2
0.643	6.4685	6.4352	4.4833	1.4	1.4	0.9	0.9	0.2	0.2
0.644	6.4256	6.3944	4.4092	1.4	1.4	0.9	0.9	0.2	0.2
0.645	6.3797	6.3511	4.3289	1.4	1.4	0.9	0.9	0.2	0.2
0.646	6.33	6.3033	4.2422	1.4	1.4	0.9	0.9	0.2	0.2
0.647	6.2791	6.2539	4.1532	1.4	1.4	0.9	0.9	0.2	0.2
0.648	6.2312	6.2088	4.069	1.4	1.4	0.9	0.9	0.2	0.2
0.649	6.1897	6.1702	3.9927	1.4	1.4	0.9	0.9	0.2	0.2
0.65	6.1504	6.1324	3.9196	1.4	1.4	0.9	0.9	0.2	0.2
0.651	6.1111	6.0932	3.8486	1.4	1.4	0.9	0.9	0.2	0.2
0.652	6.076	6.0581	3.783	1.4	1.4	0.9	0.9	0.2	0.2
0.653	6.0478	6.0297	3.7273	1.4	1.4	0.9	0.9	0.2	0.2
0.654	6.0188	5.9995	3.6708	1.4	1.4	0.9	0.9	0.2	0.2
0.655	5.9955	5.975	3.6217	1.4	1.4	0.9	0.9	0.2	0.2
0.656	5.9781	5.9577	3.5814	1.4	1.4	0.9	0.9	0.2	0.2
0.657	5.9594	5.9392	3.5386	1.4	1.4	0.9	0.9	0.2	0.2
0.658	5.9378	5.9183	3.4908	1.4	1.4	0.9	0.9	0.2	0.2
0.659	5.9154	5.8967	3.4396	1.4	1.4	0.9	0.9	0.2	0.2
0.66	5.8887	5.87	3.3799	1.4	1.4	0.9	0.9	0.2	0.2
0.661	5.86	5.8411	3.3139	1.4	1.4	0.9	0.9	0.2	0.2
0.662	5.8299	5.8104	3.2427	1.4	1.4	0.9	0.9	0.2	0.2
0.663	5.7994	5.7788	3.1669	1.4	1.4	0.9	0.9	0.2	0.2
0.664	5.7643	5.7421	3.0831	1.4	1.4	0.9	0.9	0.2	0.2
0.665	5.728	5.7051	2.9968	1.4	1.4	0.9	0.9	0.2	0.2
0.666	5.6924	5.6702	2.9113	1.4	1.4	0.9	0.9	0.2	0.2
0.667	5.6644	5.6426	2.8346	1.4	1.4	0.9	0.9	0.2	0.2
0.668	5.6409	5.6187	2.7617	1.4	1.4	0.9	0.9	0.2	0.2
0.669	5.6236	5.6011	2.6967	1.4	1.4	0.9	0.9	0.2	0.2
0.67	5.6151	5.5928	2.6449	1.4	1.4	0.9	0.9	0.2	0.2
0.671	5.6099	5.5868	2.5979	1.4	1.4	0.9	0.9	0.2	0.2
0.672	5.6081	5.584	2.5565	1.4	1.4	0.9	0.9	0.2	0.2
0.673	5.6109	5.5862	2.5224	1.4	1.4	0.9	0.9	0.2	0.2
0.674	5.6122	5.5859	2.488	1.4	1.4	0.9	0.9	0.2	0.2
0.675	5.6135	5.5836	2.4547	1.4	1.4	0.9	0.9	0.2	0.2
0.676	5.6226	5.5887	2.4307	1.4	1.4	0.9	0.9	0.2	0.2
0.677	5.6337	5.5955	2.4092	1.4	1.4	0.9	0.9	0.2	0.2
0.678	5.6421	5.5998	2.3865	1.4	1.4	0.9	0.9	0.2	0.2
0.679	5.6517	5.6058	2.3664	1.4	1.4	0.9	0.9	0.2	0.2
0.68	5.6648	5.6151	2.3509	1.4	1.4	0.9	0.9	0.2	0.2
0.681	5.6851	5.6305	2.346	1.4	1.4	0.9	0.9	0.2	0.2
0.682	5.7105	5.6513	2.352	1.4	1.4	0.9	0.9	0.2	0.2
0.683	5.7452	5.6808	2.3746	1.4	1.4	0.9	0.9	0.2	0.2
0.684	5.7903	5.7203	2.4185	1.4	1.4	0.9	0.9	0.2	0.2
0.685	5.843	5.768	2.483	1.4	1.4	0.9	0.9	0.2	0.2
0.686	5.9037	5.8238	2.569	1.4	1.4	0.9	0.9	0.2	0.2
0.687	5.9763	5.8925	2.6838	1.4	1.4	0.9	0.9	0.2	0.2
0.688	6.0611	5.9736	2.8301	1.4	1.4	0.9	0.9	0.2	0.2
0.689	6.1592	6.0669	3.009	1.4	1.4	0.9	0.9	0.2	0.2
0.69	6.2812	6.185	3.2344	1.4	1.4	0.9	0.9	0.2	0.2
0.691	6.4248	6.3249	3.5036	1.4	1.4	0.9	0.9	0.2	0.2
0.692	6.5948	6.492	3.8219	1.4	1.4	0.9	0.9	0.2	0.2
0.693	6.7974	6.6923	4.1956	1.4	1.4	0.9	0.9	0.2	0.2
0.694	7.0356	6.9281	4.627	1.4	1.4	0.9	0.9	0.2	0.2
0.695	7.312	7.2031	5.119	1.4	1.4	0.9	0.9	0.2	0.2
0.696	7.6279	7.5173	5.6689	1.4	1.4	0.9	0.9	0.2	0.2
0.697	7.9902	7.8763	6.2802	1.4	1.4	0.9	0.9	0.2	0.2
0.698	8.3963	8.2792	6.9484	1.4	1.4	0.9	0.9	0.2	0.2
0.699	8.8432	8.7239	7.6668	1.4	1.4	0.9	0.9	0.2	0.2
0.7	9.3288	9.2073	8.4275	1.4	1.4	0.9	0.9	0.2	0.2
0.701	9.8491	9.7261	9.2239	1.4	1.4	0.9	0.9	0.2	0.2
0.702	10.3981	10.2739	10.046	1.4	1.4	0.9	0.9	0.2	0.2
0.703	10.9677	10.8415	10.8822	1.4	1.4	0.9	0.9	0.2	0.2
0.704	11.5572	11.4299	11.7307	1.4	1.4	0.9	0.9	0.2	0.2
0.705	12.1615	12.0337	12.5827	1.4	1.4	0.9	0.9	0.2	0.2
0.706	12.7719	12.6442	13.4291	1.4	1.4	0.9	0.9	0.2	0.2
0.707	13.3857	13.2582	14.2669	1.4	1.4	0.9	0.9	0.2	0.2
0.708	14.0021	13.8748	15.0956	1.4	1.4	0.9	0.9	0.2	0.2
0.709	14.6176	14.4896	15.9125	1.4	1.4	0.9	0.9	0.2	0.2
0.71	15.2316	15.1018	16.7152	1.4	1.4	0.9	0.9	0.2	0.2
0.711	15.8462	15.7149	17.5072	1.4	1.4	0.9	0.9	0.2	0.2
0.712	16.4605	16.3268	18.2898	1.4	1.4	0.9	0.9	0.2	0.2
0.713	17.0743	16.9375	19.0629	1.4	1.4	0.9	0.9	0.2	0.2
0.714	17.6875	17.5467	19.8262	1.4	1.4	0.9	0.9	0.2	0.2
0.715	18.298	18.1535	20.5794	1.4	1.4	0.9	0.9	0.2	0.2
0.716	18.9084	18.7596	21.3246	1.4	1.4	0.9	0.9	0.2	0.2
0.717	19.5173	19.364	22.0616	1.4	1.4	0.9	0.9	0.2	0.2
0.718	20.124	19.9659	22.7896	1.4	1.4	0.9	0.9	0.2	0.2
0.719	20.7282	20.566	23.5091	1.4	1.4	0.9	0.9	0.2	0.2
0.72	21.3275	21.1616	24.2191	1.4	1.4	0.9	0.9	0.2	0.2
0.721	21.9227	21.753	24.9198	1.4	1.4	0.9	0.9	0.2	0.2
0.722	22.5139	22.3397	25.6103	1.4	1.4	0.9	0.9	0.2	0.2
0.723	23.0967	22.9176	26.2876	1.4	1.4	0.9	0.9	0.2	0.2
0.724	23.6697	23.4864	26.9492	1.4	1.4	0.9	0.9	0.2	0.2
0.725	24.2315	24.0448	27.5954	1.4	1.4	0.9	0.9	0.2	0.2
0.726	24.7822	24.5909	28.2262	1.4	1.4	0.9	0.9	0.2	0.2
0.727	25.3197	25.1237	28.8387	1.4	1.4	0.9	0.9	0.2	0.2
0.728	25.8403	25.6399	29.4305	1.4	1.4	0.9	0.9	0.2	0.2
0.729	26.3419	26.1374	29.9987	1.4	1.4	0.9	0.9	0.2	0.2
0.73	26.828	26.6182	30.5451	1.4	1.4	0.9	0.9	0.2	0.2
0.731	27.2973	27.0819	31.0703	1.4	1.4	0.9	0.9	0.2	0.2
0.732	27.7479	27.5269	31.5724	1.4	1.4	0.9	0.9	0.2	0.2
0.733	28.1793	27.9535	32.0517	1.4	1.4	0.9	0.9	0.2	0.2
