*Name: Leaf top
Type: Leaf Spectrum
Particle Size: Solid
Wavelength Range: All

Origin: Remote Sensing Laboratories, University of Zurich

Description: abaxial reflectance, adaxial reflectance, and adaxial transmittance measured by ASD Integrating Sphere

Measurement: Hemispherical Conical Reflectance Factor HCRF

First Column:  X Wavelength (micrometers)
Second Column:  Y Reflectance (percent)
First X Value: 0.369
Last X Value: 2.493
Number of X Values: 2125
Additional Information:  None*

*Number of Lambda pertinent values : *  2125
*Lambda_min - Lambda_max : *  0.369 2.493
*Leaf parameters : Upper type of roughness [0/1 : cst/var] - Lower type of roughness* 0 0
*Lambda - Lower reflectance - Upper reflectance - Transmittance - Lower refraction index - Upper refracton index - Lower roughness [0;1] - Upper roughness - Lower roughness index [0.1;0.3] - Upper roughness index *
0.369	0.95779	0.90665	-0.22031	1.4	1.4	0.9	0.9	0.2	0.2
0.37	1.5305	1.4557	-0.20469	1.4	1.4	0.9	0.9	0.2	0.2
0.371	2.0817	1.9945	-0.22913	1.4	1.4	0.9	0.9	0.2	0.2
0.372	2.5222	2.4241	-0.44503	1.4	1.4	0.9	0.9	0.2	0.2
0.373	2.9835	2.878	-0.49957	1.4	1.4	0.9	0.9	0.2	0.2
0.374	3.4047	3.2909	-0.47309	1.4	1.4	0.9	0.9	0.2	0.2
0.375	3.7202	3.5963	-0.44032	1.4	1.4	0.9	0.9	0.2	0.2
0.376	3.8714	3.7437	-0.40814	1.4	1.4	0.9	0.9	0.2	0.2
0.377	3.8915	3.7693	-0.26031	1.4	1.4	0.9	0.9	0.2	0.2
0.378	3.726	3.6168	-0.045777	1.4	1.4	0.9	0.9	0.2	0.2
0.379	3.7326	3.6201	-0.022702	1.4	1.4	0.9	0.9	0.2	0.2
0.38	3.7531	3.6548	0.051821	1.4	1.4	0.9	0.9	0.2	0.2
0.381	3.7474	3.6477	0.037155	1.4	1.4	0.9	0.9	0.2	0.2
0.382	3.7464	3.6369	0.013855	1.4	1.4	0.9	0.9	0.2	0.2
0.383	3.8018	3.6884	0.085825	1.4	1.4	0.9	0.9	0.2	0.2
0.384	3.8101	3.709	0.13779	1.4	1.4	0.9	0.9	0.2	0.2
0.385	3.7434	3.655	0.054536	1.4	1.4	0.9	0.9	0.2	0.2
0.386	3.6366	3.5602	-0.12518	1.4	1.4	0.9	0.9	0.2	0.2
0.387	3.677	3.6109	-0.0045951	1.4	1.4	0.9	0.9	0.2	0.2
0.388	3.7281	3.6675	0.11012	1.4	1.4	0.9	0.9	0.2	0.2
0.389	3.7419	3.688	0.13698	1.4	1.4	0.9	0.9	0.2	0.2
0.39	3.7875	3.7428	0.22773	1.4	1.4	0.9	0.9	0.2	0.2
0.391	3.8719	3.8338	0.37283	1.4	1.4	0.9	0.9	0.2	0.2
0.392	3.9162	3.8781	0.42689	1.4	1.4	0.9	0.9	0.2	0.2
0.393	3.958	3.916	0.46859	1.4	1.4	0.9	0.9	0.2	0.2
0.394	4.017	3.9745	0.54514	1.4	1.4	0.9	0.9	0.2	0.2
0.395	4.0471	4.0008	0.5711	1.4	1.4	0.9	0.9	0.2	0.2
0.396	4.0599	4.01	0.57159	1.4	1.4	0.9	0.9	0.2	0.2
0.397	4.0808	4.0253	0.57154	1.4	1.4	0.9	0.9	0.2	0.2
0.398	4.1008	4.0382	0.58715	1.4	1.4	0.9	0.9	0.2	0.2
0.399	4.1252	4.0587	0.62437	1.4	1.4	0.9	0.9	0.2	0.2
0.4	4.1143	4.0482	0.59588	1.4	1.4	0.9	0.9	0.2	0.2
0.401	4.1145	4.0469	0.59534	1.4	1.4	0.9	0.9	0.2	0.2
0.402	4.0917	4.0245	0.54827	1.4	1.4	0.9	0.9	0.2	0.2
0.403	4.0629	3.9987	0.47181	1.4	1.4	0.9	0.9	0.2	0.2
0.404	4.0588	3.9961	0.43599	1.4	1.4	0.9	0.9	0.2	0.2
0.405	4.0251	3.9644	0.35334	1.4	1.4	0.9	0.9	0.2	0.2
0.406	3.992	3.9354	0.27923	1.4	1.4	0.9	0.9	0.2	0.2
0.407	4.0209	3.9656	0.32168	1.4	1.4	0.9	0.9	0.2	0.2
0.408	4.0166	3.9572	0.29271	1.4	1.4	0.9	0.9	0.2	0.2
0.409	3.9979	3.9353	0.24002	1.4	1.4	0.9	0.9	0.2	0.2
0.41	4.0101	3.9498	0.25363	1.4	1.4	0.9	0.9	0.2	0.2
0.411	4.0431	3.9835	0.301	1.4	1.4	0.9	0.9	0.2	0.2
0.412	4.0914	4.0328	0.37809	1.4	1.4	0.9	0.9	0.2	0.2
0.413	4.1465	4.0905	0.46871	1.4	1.4	0.9	0.9	0.2	0.2
0.414	4.1634	4.1097	0.48717	1.4	1.4	0.9	0.9	0.2	0.2
0.415	4.1852	4.132	0.5156	1.4	1.4	0.9	0.9	0.2	0.2
0.416	4.2183	4.1632	0.55806	1.4	1.4	0.9	0.9	0.2	0.2
0.417	4.2402	4.1865	0.57794	1.4	1.4	0.9	0.9	0.2	0.2
0.418	4.2505	4.1996	0.58205	1.4	1.4	0.9	0.9	0.2	0.2
0.419	4.2683	4.2207	0.59811	1.4	1.4	0.9	0.9	0.2	0.2
0.42	4.2953	4.2503	0.6302	1.4	1.4	0.9	0.9	0.2	0.2
0.421	4.3264	4.2791	0.67066	1.4	1.4	0.9	0.9	0.2	0.2
0.422	4.3374	4.2866	0.67567	1.4	1.4	0.9	0.9	0.2	0.2
0.423	4.3515	4.2984	0.68731	1.4	1.4	0.9	0.9	0.2	0.2
0.424	4.3832	4.3268	0.73314	1.4	1.4	0.9	0.9	0.2	0.2
0.425	4.4057	4.344	0.76046	1.4	1.4	0.9	0.9	0.2	0.2
0.426	4.4242	4.3593	0.78125	1.4	1.4	0.9	0.9	0.2	0.2
0.427	4.4547	4.3868	0.82273	1.4	1.4	0.9	0.9	0.2	0.2
0.428	4.4822	4.4116	0.86205	1.4	1.4	0.9	0.9	0.2	0.2
0.429	4.5095	4.4359	0.90367	1.4	1.4	0.9	0.9	0.2	0.2
0.43	4.5254	4.4488	0.92811	1.4	1.4	0.9	0.9	0.2	0.2
0.431	4.5279	4.4513	0.93418	1.4	1.4	0.9	0.9	0.2	0.2
0.432	4.5482	4.4705	0.96921	1.4	1.4	0.9	0.9	0.2	0.2
0.433	4.5783	4.499	1.0197	1.4	1.4	0.9	0.9	0.2	0.2
0.434	4.607	4.5264	1.0706	1.4	1.4	0.9	0.9	0.2	0.2
0.435	4.628	4.5471	1.1092	1.4	1.4	0.9	0.9	0.2	0.2
0.436	4.6526	4.574	1.1541	1.4	1.4	0.9	0.9	0.2	0.2
0.437	4.6772	4.601	1.1988	1.4	1.4	0.9	0.9	0.2	0.2
0.438	4.6983	4.6228	1.2387	1.4	1.4	0.9	0.9	0.2	0.2
0.439	4.7157	4.6417	1.2714	1.4	1.4	0.9	0.9	0.2	0.2
0.44	4.7284	4.6557	1.2888	1.4	1.4	0.9	0.9	0.2	0.2
0.441	4.7376	4.6646	1.3002	1.4	1.4	0.9	0.9	0.2	0.2
0.442	4.7406	4.6686	1.3056	1.4	1.4	0.9	0.9	0.2	0.2
0.443	4.7434	4.6727	1.312	1.4	1.4	0.9	0.9	0.2	0.2
0.444	4.7364	4.6664	1.3026	1.4	1.4	0.9	0.9	0.2	0.2
0.445	4.7332	4.6629	1.2978	1.4	1.4	0.9	0.9	0.2	0.2
0.446	4.7361	4.6643	1.3006	1.4	1.4	0.9	0.9	0.2	0.2
0.447	4.7458	4.6718	1.3165	1.4	1.4	0.9	0.9	0.2	0.2
0.448	4.7611	4.6848	1.3447	1.4	1.4	0.9	0.9	0.2	0.2
0.449	4.7775	4.6998	1.3758	1.4	1.4	0.9	0.9	0.2	0.2
0.45	4.7908	4.7125	1.4037	1.4	1.4	0.9	0.9	0.2	0.2
0.451	4.8043	4.7247	1.432	1.4	1.4	0.9	0.9	0.2	0.2
0.452	4.8293	4.7488	1.4809	1.4	1.4	0.9	0.9	0.2	0.2
0.453	4.8586	4.7772	1.5366	1.4	1.4	0.9	0.9	0.2	0.2
0.454	4.8802	4.7984	1.5778	1.4	1.4	0.9	0.9	0.2	0.2
0.455	4.8892	4.8083	1.6045	1.4	1.4	0.9	0.9	0.2	0.2
0.456	4.8951	4.8154	1.6282	1.4	1.4	0.9	0.9	0.2	0.2
0.457	4.9116	4.8336	1.6668	1.4	1.4	0.9	0.9	0.2	0.2
0.458	4.9203	4.8431	1.6916	1.4	1.4	0.9	0.9	0.2	0.2
0.459	4.9244	4.8468	1.7064	1.4	1.4	0.9	0.9	0.2	0.2
0.46	4.9283	4.8502	1.7177	1.4	1.4	0.9	0.9	0.2	0.2
0.461	4.9297	4.8517	1.7282	1.4	1.4	0.9	0.9	0.2	0.2
0.462	4.9286	4.8506	1.734	1.4	1.4	0.9	0.9	0.2	0.2
0.463	4.9292	4.8506	1.7404	1.4	1.4	0.9	0.9	0.2	0.2
0.464	4.9263	4.8476	1.7408	1.4	1.4	0.9	0.9	0.2	0.2
0.465	4.9269	4.8484	1.7451	1.4	1.4	0.9	0.9	0.2	0.2
0.466	4.9312	4.8532	1.7551	1.4	1.4	0.9	0.9	0.2	0.2
0.467	4.9421	4.8647	1.778	1.4	1.4	0.9	0.9	0.2	0.2
0.468	4.9522	4.8755	1.8006	1.4	1.4	0.9	0.9	0.2	0.2
0.469	4.9592	4.8827	1.8179	1.4	1.4	0.9	0.9	0.2	0.2
0.47	4.963	4.8865	1.8292	1.4	1.4	0.9	0.9	0.2	0.2
0.471	4.9756	4.8991	1.8521	1.4	1.4	0.9	0.9	0.2	0.2
0.472	4.9847	4.9073	1.8689	1.4	1.4	0.9	0.9	0.2	0.2
0.473	4.9906	4.9127	1.8817	1.4	1.4	0.9	0.9	0.2	0.2
0.474	4.9909	4.9143	1.8862	1.4	1.4	0.9	0.9	0.2	0.2
0.475	4.991	4.9163	1.8933	1.4	1.4	0.9	0.9	0.2	0.2
0.476	5.0003	4.9268	1.9146	1.4	1.4	0.9	0.9	0.2	0.2
0.477	5.0093	4.9366	1.9319	1.4	1.4	0.9	0.9	0.2	0.2
0.478	5.0085	4.937	1.9335	1.4	1.4	0.9	0.9	0.2	0.2
0.479	5.0037	4.9331	1.9286	1.4	1.4	0.9	0.9	0.2	0.2
0.48	5.0039	4.9336	1.9323	1.4	1.4	0.9	0.9	0.2	0.2
0.481	5.0073	4.9371	1.9426	1.4	1.4	0.9	0.9	0.2	0.2
0.482	5.0067	4.9364	1.9465	1.4	1.4	0.9	0.9	0.2	0.2
0.483	5.0044	4.9334	1.9474	1.4	1.4	0.9	0.9	0.2	0.2
0.484	5.0048	4.933	1.9523	1.4	1.4	0.9	0.9	0.2	0.2
0.485	5.0124	4.9393	1.9674	1.4	1.4	0.9	0.9	0.2	0.2
0.486	5.0186	4.9442	1.9803	1.4	1.4	0.9	0.9	0.2	0.2
0.487	5.0245	4.9499	1.9964	1.4	1.4	0.9	0.9	0.2	0.2
0.488	5.0279	4.9538	2.0089	1.4	1.4	0.9	0.9	0.2	0.2
0.489	5.0375	4.9639	2.0304	1.4	1.4	0.9	0.9	0.2	0.2
0.49	5.0615	4.9882	2.0741	1.4	1.4	0.9	0.9	0.2	0.2
0.491	5.0789	5.0066	2.106	1.4	1.4	0.9	0.9	0.2	0.2
0.492	5.0896	5.0183	2.128	1.4	1.4	0.9	0.9	0.2	0.2
0.493	5.1017	5.0298	2.1523	1.4	1.4	0.9	0.9	0.2	0.2
0.494	5.1205	5.0477	2.1881	1.4	1.4	0.9	0.9	0.2	0.2
0.495	5.1413	5.068	2.2284	1.4	1.4	0.9	0.9	0.2	0.2
0.496	5.1661	5.0918	2.2769	1.4	1.4	0.9	0.9	0.2	0.2
0.497	5.194	5.1177	2.3291	1.4	1.4	0.9	0.9	0.2	0.2
0.498	5.2254	5.1468	2.3861	1.4	1.4	0.9	0.9	0.2	0.2
0.499	5.2577	5.1769	2.4453	1.4	1.4	0.9	0.9	0.2	0.2
0.5	5.2918	5.2095	2.5089	1.4	1.4	0.9	0.9	0.2	0.2
0.501	5.3301	5.2465	2.5834	1.4	1.4	0.9	0.9	0.2	0.2
0.502	5.3691	5.2839	2.6612	1.4	1.4	0.9	0.9	0.2	0.2
0.503	5.4163	5.3298	2.7523	1.4	1.4	0.9	0.9	0.2	0.2
0.504	5.4766	5.3888	2.8669	1.4	1.4	0.9	0.9	0.2	0.2
0.505	5.5365	5.4471	2.9827	1.4	1.4	0.9	0.9	0.2	0.2
0.506	5.5958	5.5049	3.0989	1.4	1.4	0.9	0.9	0.2	0.2
0.507	5.6627	5.5686	3.2285	1.4	1.4	0.9	0.9	0.2	0.2
0.508	5.7371	5.64	3.3732	1.4	1.4	0.9	0.9	0.2	0.2
0.509	5.8201	5.7195	3.5342	1.4	1.4	0.9	0.9	0.2	0.2
0.51	5.9057	5.8008	3.7014	1.4	1.4	0.9	0.9	0.2	0.2
0.511	5.9949	5.885	3.8742	1.4	1.4	0.9	0.9	0.2	0.2
0.512	6.0917	5.9768	4.0615	1.4	1.4	0.9	0.9	0.2	0.2
0.513	6.1987	6.0793	4.2695	1.4	1.4	0.9	0.9	0.2	0.2
0.514	6.3117	6.1875	4.4891	1.4	1.4	0.9	0.9	0.2	0.2
0.515	6.4274	6.2973	4.7157	1.4	1.4	0.9	0.9	0.2	0.2
0.516	6.5501	6.4135	4.9573	1.4	1.4	0.9	0.9	0.2	0.2
0.517	6.6883	6.5455	5.2245	1.4	1.4	0.9	0.9	0.2	0.2
0.518	6.8371	6.6873	5.5105	1.4	1.4	0.9	0.9	0.2	0.2
0.519	6.9871	6.8302	5.8001	1.4	1.4	0.9	0.9	0.2	0.2
0.52	7.1426	6.9794	6.0987	1.4	1.4	0.9	0.9	0.2	0.2
0.521	7.307	7.1369	6.4118	1.4	1.4	0.9	0.9	0.2	0.2
0.522	7.4771	7.2997	6.7332	1.4	1.4	0.9	0.9	0.2	0.2
0.523	7.6499	7.4649	7.0562	1.4	1.4	0.9	0.9	0.2	0.2
0.524	7.8204	7.6281	7.3733	1.4	1.4	0.9	0.9	0.2	0.2
0.525	7.992	7.7928	7.6898	1.4	1.4	0.9	0.9	0.2	0.2
0.526	8.1631	7.9576	8.0028	1.4	1.4	0.9	0.9	0.2	0.2
0.527	8.3319	8.1205	8.3101	1.4	1.4	0.9	0.9	0.2	0.2
0.528	8.4935	8.2765	8.602	1.4	1.4	0.9	0.9	0.2	0.2
0.529	8.6494	8.4271	8.8813	1.4	1.4	0.9	0.9	0.2	0.2
0.53	8.8007	8.5736	9.1523	1.4	1.4	0.9	0.9	0.2	0.2
0.531	8.9477	8.7165	9.4136	1.4	1.4	0.9	0.9	0.2	0.2
0.532	9.0847	8.8497	9.6563	1.4	1.4	0.9	0.9	0.2	0.2
0.533	9.2105	8.9722	9.8802	1.4	1.4	0.9	0.9	0.2	0.2
0.534	9.3314	9.0908	10.0943	1.4	1.4	0.9	0.9	0.2	0.2
0.535	9.4424	9.2	10.2908	1.4	1.4	0.9	0.9	0.2	0.2
0.536	9.5393	9.2957	10.4641	1.4	1.4	0.9	0.9	0.2	0.2
0.537	9.6263	9.3818	10.6193	1.4	1.4	0.9	0.9	0.2	0.2
0.538	9.7047	9.4598	10.7601	1.4	1.4	0.9	0.9	0.2	0.2
0.539	9.7713	9.5267	10.8834	1.4	1.4	0.9	0.9	0.2	0.2
0.54	9.8281	9.584	10.99	1.4	1.4	0.9	0.9	0.2	0.2
0.541	9.8782	9.6351	11.0855	1.4	1.4	0.9	0.9	0.2	0.2
0.542	9.9255	9.684	11.177	1.4	1.4	0.9	0.9	0.2	0.2
0.543	9.9689	9.7294	11.2607	1.4	1.4	0.9	0.9	0.2	0.2
0.544	10.0104	9.7731	11.3417	1.4	1.4	0.9	0.9	0.2	0.2
0.545	10.0538	9.8187	11.4259	1.4	1.4	0.9	0.9	0.2	0.2
0.546	10.0958	9.8634	11.5074	1.4	1.4	0.9	0.9	0.2	0.2
0.547	10.1374	9.9082	11.5889	1.4	1.4	0.9	0.9	0.2	0.2
0.548	10.178	9.952	11.6688	1.4	1.4	0.9	0.9	0.2	0.2
0.549	10.218	9.9958	11.7474	1.4	1.4	0.9	0.9	0.2	0.2
0.55	10.2546	10.0362	11.8208	1.4	1.4	0.9	0.9	0.2	0.2
0.551	10.2898	10.0743	11.8908	1.4	1.4	0.9	0.9	0.2	0.2
0.552	10.3197	10.1072	11.9525	1.4	1.4	0.9	0.9	0.2	0.2
0.553	10.3407	10.1312	12.001	1.4	1.4	0.9	0.9	0.2	0.2
0.554	10.3552	10.1487	12.0382	1.4	1.4	0.9	0.9	0.2	0.2
0.555	10.3642	10.1607	12.0667	1.4	1.4	0.9	0.9	0.2	0.2
0.556	10.3645	10.164	12.082	1.4	1.4	0.9	0.9	0.2	0.2
0.557	10.3534	10.1556	12.0776	1.4	1.4	0.9	0.9	0.2	0.2
0.558	10.3347	10.1395	12.0606	1.4	1.4	0.9	0.9	0.2	0.2
0.559	10.3064	10.1137	12.0284	1.4	1.4	0.9	0.9	0.2	0.2
0.56	10.2654	10.0758	11.9755	1.4	1.4	0.9	0.9	0.2	0.2
0.561	10.2164	10.0298	11.9093	1.4	1.4	0.9	0.9	0.2	0.2
0.562	10.161	9.9774	11.8322	1.4	1.4	0.9	0.9	0.2	0.2
0.563	10.1004	9.9198	11.7447	1.4	1.4	0.9	0.9	0.2	0.2
0.564	10.0327	9.8547	11.6441	1.4	1.4	0.9	0.9	0.2	0.2
0.565	9.9558	9.7805	11.5278	1.4	1.4	0.9	0.9	0.2	0.2
0.566	9.8723	9.6999	11.3992	1.4	1.4	0.9	0.9	0.2	0.2
0.567	9.783	9.6133	11.2595	1.4	1.4	0.9	0.9	0.2	0.2
0.568	9.6869	9.5198	11.1078	1.4	1.4	0.9	0.9	0.2	0.2
0.569	9.5859	9.4209	10.9463	1.4	1.4	0.9	0.9	0.2	0.2
0.57	9.4792	9.316	10.7739	1.4	1.4	0.9	0.9	0.2	0.2
0.571	9.3698	9.2084	10.5955	1.4	1.4	0.9	0.9	0.2	0.2
0.572	9.2564	9.097	10.4096	1.4	1.4	0.9	0.9	0.2	0.2
0.573	9.1402	8.9831	10.2189	1.4	1.4	0.9	0.9	0.2	0.2
0.574	9.0261	8.8712	10.0304	1.4	1.4	0.9	0.9	0.2	0.2
0.575	8.9163	8.7637	9.8477	1.4	1.4	0.9	0.9	0.2	0.2
0.576	8.8121	8.6616	9.6728	1.4	1.4	0.9	0.9	0.2	0.2
0.577	8.7137	8.5652	9.5058	1.4	1.4	0.9	0.9	0.2	0.2
0.578	8.6189	8.4723	9.3438	1.4	1.4	0.9	0.9	0.2	0.2
0.579	8.5268	8.3822	9.1864	1.4	1.4	0.9	0.9	0.2	0.2
0.58	8.4415	8.299	9.0393	1.4	1.4	0.9	0.9	0.2	0.2
0.581	8.3646	8.2242	8.9052	1.4	1.4	0.9	0.9	0.2	0.2
0.582	8.2891	8.1503	8.7742	1.4	1.4	0.9	0.9	0.2	0.2
0.583	8.2176	8.08	8.65	1.4	1.4	0.9	0.9	0.2	0.2
0.584	8.152	8.0157	8.5355	1.4	1.4	0.9	0.9	0.2	0.2
0.585	8.0908	7.9558	8.4289	1.4	1.4	0.9	0.9	0.2	0.2
0.586	8.0323	7.8985	8.3276	1.4	1.4	0.9	0.9	0.2	0.2
0.587	7.9788	7.8463	8.2354	1.4	1.4	0.9	0.9	0.2	0.2
0.588	7.9266	7.7947	8.146	1.4	1.4	0.9	0.9	0.2	0.2
0.589	7.8804	7.7491	8.067	1.4	1.4	0.9	0.9	0.2	0.2
0.59	7.8415	7.7111	8.0004	1.4	1.4	0.9	0.9	0.2	0.2
0.591	7.8077	7.6781	7.9426	1.4	1.4	0.9	0.9	0.2	0.2
0.592	7.7764	7.6475	7.8893	1.4	1.4	0.9	0.9	0.2	0.2
0.593	7.7481	7.6203	7.842	1.4	1.4	0.9	0.9	0.2	0.2
0.594	7.7248	7.598	7.8036	1.4	1.4	0.9	0.9	0.2	0.2
0.595	7.7071	7.581	7.7734	1.4	1.4	0.9	0.9	0.2	0.2
0.596	7.688	7.5621	7.7418	1.4	1.4	0.9	0.9	0.2	0.2
0.597	7.6703	7.5446	7.7126	1.4	1.4	0.9	0.9	0.2	0.2
0.598	7.6537	7.5284	7.6847	1.4	1.4	0.9	0.9	0.2	0.2
0.599	7.6366	7.5114	7.6561	1.4	1.4	0.9	0.9	0.2	0.2
0.6	7.6183	7.4935	7.6266	1.4	1.4	0.9	0.9	0.2	0.2
0.601	7.5978	7.4735	7.594	1.4	1.4	0.9	0.9	0.2	0.2
0.602	7.5737	7.4499	7.5551	1.4	1.4	0.9	0.9	0.2	0.2
0.603	7.5517	7.429	7.5186	1.4	1.4	0.9	0.9	0.2	0.2
0.604	7.5296	7.408	7.4806	1.4	1.4	0.9	0.9	0.2	0.2
0.605	7.5049	7.3847	7.4386	1.4	1.4	0.9	0.9	0.2	0.2
0.606	7.477	7.3582	7.3903	1.4	1.4	0.9	0.9	0.2	0.2
0.607	7.4451	7.3275	7.334	1.4	1.4	0.9	0.9	0.2	0.2
0.608	7.4107	7.2941	7.2725	1.4	1.4	0.9	0.9	0.2	0.2
0.609	7.3755	7.2596	7.2071	1.4	1.4	0.9	0.9	0.2	0.2
0.61	7.3389	7.2238	7.1378	1.4	1.4	0.9	0.9	0.2	0.2
0.611	7.2961	7.1819	7.0583	1.4	1.4	0.9	0.9	0.2	0.2
0.612	7.2504	7.1373	6.973	1.4	1.4	0.9	0.9	0.2	0.2
0.613	7.2051	7.0927	6.8874	1.4	1.4	0.9	0.9	0.2	0.2
0.614	7.1578	7.0464	6.7989	1.4	1.4	0.9	0.9	0.2	0.2
0.615	7.1095	6.9993	6.708	1.4	1.4	0.9	0.9	0.2	0.2
0.616	7.0613	6.9526	6.6162	1.4	1.4	0.9	0.9	0.2	0.2
0.617	7.0147	6.9073	6.5269	1.4	1.4	0.9	0.9	0.2	0.2
0.618	6.9694	6.8629	6.4399	1.4	1.4	0.9	0.9	0.2	0.2
0.619	6.9261	6.8208	6.3576	1.4	1.4	0.9	0.9	0.2	0.2
0.62	6.8853	6.7812	6.2802	1.4	1.4	0.9	0.9	0.2	0.2
0.621	6.8455	6.7417	6.2042	1.4	1.4	0.9	0.9	0.2	0.2
0.622	6.8102	6.7068	6.1365	1.4	1.4	0.9	0.9	0.2	0.2
0.623	6.7823	6.6791	6.081	1.4	1.4	0.9	0.9	0.2	0.2
0.624	6.7591	6.6565	6.0343	1.4	1.4	0.9	0.9	0.2	0.2
0.625	6.7373	6.6356	5.9924	1.4	1.4	0.9	0.9	0.2	0.2
0.626	6.7209	6.62	5.9606	1.4	1.4	0.9	0.9	0.2	0.2
0.627	6.7078	6.6078	5.9354	1.4	1.4	0.9	0.9	0.2	0.2
0.628	6.695	6.5959	5.9125	1.4	1.4	0.9	0.9	0.2	0.2
0.629	6.6848	6.5867	5.8947	1.4	1.4	0.9	0.9	0.2	0.2
0.63	6.6798	6.583	5.886	1.4	1.4	0.9	0.9	0.2	0.2
0.631	6.6777	6.5818	5.883	1.4	1.4	0.9	0.9	0.2	0.2
0.632	6.6748	6.5794	5.8787	1.4	1.4	0.9	0.9	0.2	0.2
0.633	6.6687	6.5736	5.8696	1.4	1.4	0.9	0.9	0.2	0.2
0.634	6.6595	6.5645	5.8554	1.4	1.4	0.9	0.9	0.2	0.2
0.635	6.6456	6.5504	5.8325	1.4	1.4	0.9	0.9	0.2	0.2
0.636	6.6297	6.5344	5.8044	1.4	1.4	0.9	0.9	0.2	0.2
0.637	6.6098	6.5144	5.7684	1.4	1.4	0.9	0.9	0.2	0.2
0.638	6.5844	6.4893	5.7214	1.4	1.4	0.9	0.9	0.2	0.2
0.639	6.5546	6.4596	5.6642	1.4	1.4	0.9	0.9	0.2	0.2
0.64	6.5159	6.4212	5.591	1.4	1.4	0.9	0.9	0.2	0.2
0.641	6.4719	6.3778	5.5064	1.4	1.4	0.9	0.9	0.2	0.2
0.642	6.4255	6.3321	5.4151	1.4	1.4	0.9	0.9	0.2	0.2
0.643	6.3775	6.285	5.3191	1.4	1.4	0.9	0.9	0.2	0.2
0.644	6.3298	6.2387	5.2205	1.4	1.4	0.9	0.9	0.2	0.2
0.645	6.2791	6.1894	5.1157	1.4	1.4	0.9	0.9	0.2	0.2
0.646	6.2246	6.1361	5.0045	1.4	1.4	0.9	0.9	0.2	0.2
0.647	6.1699	6.0825	4.892	1.4	1.4	0.9	0.9	0.2	0.2
0.648	6.118	6.032	4.7841	1.4	1.4	0.9	0.9	0.2	0.2
0.649	6.0695	5.9852	4.682	1.4	1.4	0.9	0.9	0.2	0.2
0.65	6.0247	5.9415	4.5859	1.4	1.4	0.9	0.9	0.2	0.2
0.651	5.9824	5.8999	4.4956	1.4	1.4	0.9	0.9	0.2	0.2
0.652	5.9444	5.8623	4.4127	1.4	1.4	0.9	0.9	0.2	0.2
0.653	5.913	5.831	4.3405	1.4	1.4	0.9	0.9	0.2	0.2
0.654	5.8824	5.8002	4.2712	1.4	1.4	0.9	0.9	0.2	0.2
0.655	5.8563	5.774	4.2089	1.4	1.4	0.9	0.9	0.2	0.2
0.656	5.835	5.753	4.1538	1.4	1.4	0.9	0.9	0.2	0.2
0.657	5.8127	5.7309	4.0964	1.4	1.4	0.9	0.9	0.2	0.2
0.658	5.7888	5.7073	4.0345	1.4	1.4	0.9	0.9	0.2	0.2
0.659	5.7635	5.6822	3.9678	1.4	1.4	0.9	0.9	0.2	0.2
0.66	5.7336	5.6523	3.8922	1.4	1.4	0.9	0.9	0.2	0.2
0.661	5.7014	5.6201	3.8091	1.4	1.4	0.9	0.9	0.2	0.2
0.662	5.6663	5.5849	3.7183	1.4	1.4	0.9	0.9	0.2	0.2
0.663	5.6293	5.5478	3.6215	1.4	1.4	0.9	0.9	0.2	0.2
0.664	5.5906	5.5085	3.5192	1.4	1.4	0.9	0.9	0.2	0.2
0.665	5.5512	5.4681	3.4143	1.4	1.4	0.9	0.9	0.2	0.2
0.666	5.5115	5.4277	3.3084	1.4	1.4	0.9	0.9	0.2	0.2
0.667	5.4775	5.3925	3.2096	1.4	1.4	0.9	0.9	0.2	0.2
0.668	5.4471	5.3604	3.1156	1.4	1.4	0.9	0.9	0.2	0.2
0.669	5.4222	5.3334	3.03	1.4	1.4	0.9	0.9	0.2	0.2
0.67	5.4057	5.3144	2.9573	1.4	1.4	0.9	0.9	0.2	0.2
0.671	5.3933	5.2987	2.8914	1.4	1.4	0.9	0.9	0.2	0.2
0.672	5.3857	5.2871	2.8334	1.4	1.4	0.9	0.9	0.2	0.2
0.673	5.3842	5.2813	2.7847	1.4	1.4	0.9	0.9	0.2	0.2
0.674	5.3848	5.2769	2.7399	1.4	1.4	0.9	0.9	0.2	0.2
0.675	5.3883	5.2742	2.6995	1.4	1.4	0.9	0.9	0.2	0.2
0.676	5.3993	5.2786	2.6691	1.4	1.4	0.9	0.9	0.2	0.2
0.677	5.4141	5.2864	2.644	1.4	1.4	0.9	0.9	0.2	0.2
0.678	5.4305	5.295	2.6214	1.4	1.4	0.9	0.9	0.2	0.2
0.679	5.4503	5.3067	2.6035	1.4	1.4	0.9	0.9	0.2	0.2
0.68	5.4735	5.3217	2.5914	1.4	1.4	0.9	0.9	0.2	0.2
0.681	5.5039	5.3433	2.5915	1.4	1.4	0.9	0.9	0.2	0.2
0.682	5.5405	5.3709	2.6045	1.4	1.4	0.9	0.9	0.2	0.2
0.683	5.5858	5.4071	2.6358	1.4	1.4	0.9	0.9	0.2	0.2
0.684	5.6412	5.4536	2.6908	1.4	1.4	0.9	0.9	0.2	0.2
0.685	5.7051	5.5095	2.7706	1.4	1.4	0.9	0.9	0.2	0.2
0.686	5.778	5.5748	2.8776	1.4	1.4	0.9	0.9	0.2	0.2
0.687	5.8633	5.6538	3.0203	1.4	1.4	0.9	0.9	0.2	0.2
0.688	5.9622	5.7472	3.2032	1.4	1.4	0.9	0.9	0.2	0.2
0.689	6.0757	5.8558	3.4295	1.4	1.4	0.9	0.9	0.2	0.2
0.69	6.2116	5.9877	3.7112	1.4	1.4	0.9	0.9	0.2	0.2
0.691	6.3695	6.1422	4.0493	1.4	1.4	0.9	0.9	0.2	0.2
0.692	6.5538	6.3236	4.4488	1.4	1.4	0.9	0.9	0.2	0.2
0.693	6.7696	6.5369	4.9155	1.4	1.4	0.9	0.9	0.2	0.2
0.694	7.0199	6.7849	5.452	1.4	1.4	0.9	0.9	0.2	0.2
0.695	7.3074	7.0703	6.0592	1.4	1.4	0.9	0.9	0.2	0.2
0.696	7.6332	7.394	6.7335	1.4	1.4	0.9	0.9	0.2	0.2
0.697	8.0014	7.7598	7.4751	1.4	1.4	0.9	0.9	0.2	0.2
0.698	8.4103	8.1667	8.2776	1.4	1.4	0.9	0.9	0.2	0.2
0.699	8.859	8.6139	9.1342	1.4	1.4	0.9	0.9	0.2	0.2
0.7	9.3437	9.0974	10.0339	1.4	1.4	0.9	0.9	0.2	0.2
0.701	9.8603	9.6134	10.9672	1.4	1.4	0.9	0.9	0.2	0.2
0.702	10.4032	10.1564	11.9229	1.4	1.4	0.9	0.9	0.2	0.2
0.703	10.9657	10.7191	12.8889	1.4	1.4	0.9	0.9	0.2	0.2
0.704	11.5455	11.2997	13.8607	1.4	1.4	0.9	0.9	0.2	0.2
0.705	12.1368	11.8924	14.8285	1.4	1.4	0.9	0.9	0.2	0.2
0.706	12.7322	12.4899	15.7834	1.4	1.4	0.9	0.9	0.2	0.2
0.707	13.3295	13.0891	16.7223	1.4	1.4	0.9	0.9	0.2	0.2
0.708	13.9275	13.689	17.6438	1.4	1.4	0.9	0.9	0.2	0.2
0.709	14.522	14.285	18.5445	1.4	1.4	0.9	0.9	0.2	0.2
0.71	15.1124	14.8765	19.4233	1.4	1.4	0.9	0.9	0.2	0.2
0.711	15.7003	15.4656	20.2835	1.4	1.4	0.9	0.9	0.2	0.2
0.712	16.2846	16.0505	21.1263	1.4	1.4	0.9	0.9	0.2	0.2
0.713	16.8674	16.6335	21.9544	1.4	1.4	0.9	0.9	0.2	0.2
0.714	17.4474	17.2131	22.7664	1.4	1.4	0.9	0.9	0.2	0.2
0.715	18.0237	17.789	23.5631	1.4	1.4	0.9	0.9	0.2	0.2
0.716	18.5977	18.3621	24.3462	1.4	1.4	0.9	0.9	0.2	0.2
0.717	19.1686	18.932	25.116	1.4	1.4	0.9	0.9	0.2	0.2
0.718	19.736	19.4981	25.8723	1.4	1.4	0.9	0.9	0.2	0.2
0.719	20.2994	20.0603	26.6153	1.4	1.4	0.9	0.9	0.2	0.2
0.72	20.8571	20.6168	27.3442	1.4	1.4	0.9	0.9	0.2	0.2
0.721	21.4093	21.1678	28.059	1.4	1.4	0.9	0.9	0.2	0.2
0.722	21.9557	21.7129	28.7592	1.4	1.4	0.9	0.9	0.2	0.2
0.723	22.4931	22.2489	29.4425	1.4	1.4	0.9	0.9	0.2	0.2
0.724	23.0209	22.7756	30.1079	1.4	1.4	0.9	0.9	0.2	0.2
0.725	23.5376	23.2916	30.7546	1.4	1.4	0.9	0.9	0.2	0.2
0.726	24.042	23.795	31.3821	1.4	1.4	0.9	0.9	0.2	0.2
0.727	24.5343	24.2862	31.9893	1.4	1.4	0.9	0.9	0.2	0.2
0.728	25.0118	24.7628	32.5742	1.4	1.4	0.9	0.9	0.2	0.2
0.729	25.4723	25.2226	33.135	1.4	1.4	0.9	0.9	0.2	0.2
0.73	25.9167	25.6659	33.6722	1.4	1.4	0.9	0.9	0.2	0.2
0.731	26.345	26.0929	34.1862	1.4	1.4	0.9	0.9	0.2	0.2
0.732	26.7563	26.5029	34.6773	1.4	1.4	0.9	0.9	0.2	0.2
0.733	27.15	26.8957	35.1448	1.4	1.4	0.9	0.9	0.2	0.2
