*Name: Linden bot
Type: Leaf Spectrum
Particle Size: Solid
Wavelength Range: All

Origin: Remote Sensing Laboratories, University of Zurich

Description: abaxial reflectance, adaxial reflectance, and adaxial transmittance measured by ASD Integrating Sphere

Measurement: Hemispherical Conical Reflectance Factor HCRF

First Column:  X Wavelength (micrometers)
Second Column:  Y Reflectance (percent)
First X Value: 0.369
Last X Value: 2.493
Number of X Values: 2125
Additional Information:  None*

*Number of Lambda pertinent values : *  2125
*Lambda_min - Lambda_max : *  0.369 2.493
*Leaf parameters : Upper type of roughness [0/1 : cst/var] - Lower type of roughness* 0 0
*Lambda - Lower reflectance - Upper reflectance - Transmittance - Lower refraction index - Upper refracton index - Lower roughness [0;1] - Upper roughness - Lower roughness index [0.1;0.3] - Upper roughness index *
0.369	1.6486	1.6195	-0.047033	1.4	1.4	0.9	0.9	0.2	0.2
0.37	1.9041	1.8737	-0.043972	1.4	1.4	0.9	0.9	0.2	0.2
0.371	2.1578	2.1289	-0.041468	1.4	1.4	0.9	0.9	0.2	0.2
0.372	2.4138	2.3851	-0.041863	1.4	1.4	0.9	0.9	0.2	0.2
0.373	2.6654	2.6371	-0.046151	1.4	1.4	0.9	0.9	0.2	0.2
0.374	2.9072	2.8802	-0.0552	1.4	1.4	0.9	0.9	0.2	0.2
0.375	3.1345	3.1076	-0.071789	1.4	1.4	0.9	0.9	0.2	0.2
0.376	3.3694	3.3427	-0.0675	1.4	1.4	0.9	0.9	0.2	0.2
0.377	3.5987	3.5718	-0.054628	1.4	1.4	0.9	0.9	0.2	0.2
0.378	3.7954	3.7673	-0.06082	1.4	1.4	0.9	0.9	0.2	0.2
0.379	3.9884	3.9636	-0.049128	1.4	1.4	0.9	0.9	0.2	0.2
0.38	4.1621	4.1406	-0.034868	1.4	1.4	0.9	0.9	0.2	0.2
0.381	4.3068	4.2858	-0.026393	1.4	1.4	0.9	0.9	0.2	0.2
0.382	4.4459	4.4277	0.0070898	1.4	1.4	0.9	0.9	0.2	0.2
0.383	4.5549	4.5393	0.036308	1.4	1.4	0.9	0.9	0.2	0.2
0.384	4.6267	4.6138	0.05574	1.4	1.4	0.9	0.9	0.2	0.2
0.385	4.6671	4.6583	0.076293	1.4	1.4	0.9	0.9	0.2	0.2
0.386	4.6727	4.6692	0.099896	1.4	1.4	0.9	0.9	0.2	0.2
0.387	4.6485	4.6499	0.13377	1.4	1.4	0.9	0.9	0.2	0.2
0.388	4.5985	4.6034	0.18375	1.4	1.4	0.9	0.9	0.2	0.2
0.389	4.4946	4.5047	0.21886	1.4	1.4	0.9	0.9	0.2	0.2
0.39	4.5099	4.5239	0.22535	1.4	1.4	0.9	0.9	0.2	0.2
0.391	4.5217	4.5342	0.23137	1.4	1.4	0.9	0.9	0.2	0.2
0.392	4.5492	4.5603	0.25676	1.4	1.4	0.9	0.9	0.2	0.2
0.393	4.597	4.6061	0.29973	1.4	1.4	0.9	0.9	0.2	0.2
0.394	4.6597	4.667	0.35244	1.4	1.4	0.9	0.9	0.2	0.2
0.395	4.6924	4.69	0.3681	1.4	1.4	0.9	0.9	0.2	0.2
0.396	4.7028	4.6975	0.35864	1.4	1.4	0.9	0.9	0.2	0.2
0.397	4.7023	4.7002	0.33884	1.4	1.4	0.9	0.9	0.2	0.2
0.398	4.7327	4.7293	0.35769	1.4	1.4	0.9	0.9	0.2	0.2
0.399	4.7567	4.7522	0.36432	1.4	1.4	0.9	0.9	0.2	0.2
0.4	4.7748	4.7702	0.36372	1.4	1.4	0.9	0.9	0.2	0.2
0.401	4.7986	4.7959	0.37441	1.4	1.4	0.9	0.9	0.2	0.2
0.402	4.8409	4.8408	0.40147	1.4	1.4	0.9	0.9	0.2	0.2
0.403	4.8761	4.8775	0.41984	1.4	1.4	0.9	0.9	0.2	0.2
0.404	4.8963	4.8972	0.42132	1.4	1.4	0.9	0.9	0.2	0.2
0.405	4.919	4.9199	0.42438	1.4	1.4	0.9	0.9	0.2	0.2
0.406	4.9317	4.9341	0.41448	1.4	1.4	0.9	0.9	0.2	0.2
0.407	4.9435	4.9475	0.40155	1.4	1.4	0.9	0.9	0.2	0.2
0.408	4.9628	4.9656	0.3922	1.4	1.4	0.9	0.9	0.2	0.2
0.409	4.9793	4.9823	0.38403	1.4	1.4	0.9	0.9	0.2	0.2
0.41	4.9944	4.9969	0.37696	1.4	1.4	0.9	0.9	0.2	0.2
0.411	5.0134	5.0142	0.37596	1.4	1.4	0.9	0.9	0.2	0.2
0.412	5.0461	5.0472	0.39336	1.4	1.4	0.9	0.9	0.2	0.2
0.413	5.0658	5.0671	0.39712	1.4	1.4	0.9	0.9	0.2	0.2
0.414	5.0752	5.0771	0.39075	1.4	1.4	0.9	0.9	0.2	0.2
0.415	5.1	5.1048	0.40407	1.4	1.4	0.9	0.9	0.2	0.2
0.416	5.1173	5.1211	0.4106	1.4	1.4	0.9	0.9	0.2	0.2
0.417	5.1372	5.1395	0.42174	1.4	1.4	0.9	0.9	0.2	0.2
0.418	5.1687	5.1728	0.44727	1.4	1.4	0.9	0.9	0.2	0.2
0.419	5.1808	5.1856	0.44814	1.4	1.4	0.9	0.9	0.2	0.2
0.42	5.1933	5.1992	0.45103	1.4	1.4	0.9	0.9	0.2	0.2
0.421	5.2136	5.2212	0.46634	1.4	1.4	0.9	0.9	0.2	0.2
0.422	5.2349	5.2431	0.48659	1.4	1.4	0.9	0.9	0.2	0.2
0.423	5.2609	5.2681	0.5113	1.4	1.4	0.9	0.9	0.2	0.2
0.424	5.2835	5.2898	0.53128	1.4	1.4	0.9	0.9	0.2	0.2
0.425	5.2902	5.2978	0.53357	1.4	1.4	0.9	0.9	0.2	0.2
0.426	5.3014	5.3077	0.54247	1.4	1.4	0.9	0.9	0.2	0.2
0.427	5.3163	5.3213	0.55667	1.4	1.4	0.9	0.9	0.2	0.2
0.428	5.3327	5.3379	0.57321	1.4	1.4	0.9	0.9	0.2	0.2
0.429	5.3465	5.3505	0.58647	1.4	1.4	0.9	0.9	0.2	0.2
0.43	5.3535	5.3581	0.59498	1.4	1.4	0.9	0.9	0.2	0.2
0.431	5.3576	5.3642	0.60234	1.4	1.4	0.9	0.9	0.2	0.2
0.432	5.3689	5.3767	0.61647	1.4	1.4	0.9	0.9	0.2	0.2
0.433	5.3713	5.3791	0.61975	1.4	1.4	0.9	0.9	0.2	0.2
0.434	5.3714	5.3792	0.61988	1.4	1.4	0.9	0.9	0.2	0.2
0.435	5.3774	5.3868	0.62693	1.4	1.4	0.9	0.9	0.2	0.2
0.436	5.3831	5.3931	0.63439	1.4	1.4	0.9	0.9	0.2	0.2
0.437	5.391	5.4008	0.6465	1.4	1.4	0.9	0.9	0.2	0.2
0.438	5.4009	5.4097	0.66298	1.4	1.4	0.9	0.9	0.2	0.2
0.439	5.4052	5.4148	0.67362	1.4	1.4	0.9	0.9	0.2	0.2
0.44	5.4077	5.4177	0.68062	1.4	1.4	0.9	0.9	0.2	0.2
0.441	5.4092	5.4192	0.68594	1.4	1.4	0.9	0.9	0.2	0.2
0.442	5.4102	5.4205	0.69221	1.4	1.4	0.9	0.9	0.2	0.2
0.443	5.4185	5.4292	0.70889	1.4	1.4	0.9	0.9	0.2	0.2
0.444	5.4281	5.4392	0.72791	1.4	1.4	0.9	0.9	0.2	0.2
0.445	5.4332	5.445	0.74176	1.4	1.4	0.9	0.9	0.2	0.2
0.446	5.4386	5.4505	0.75648	1.4	1.4	0.9	0.9	0.2	0.2
0.447	5.4446	5.4565	0.77212	1.4	1.4	0.9	0.9	0.2	0.2
0.448	5.4498	5.4621	0.78712	1.4	1.4	0.9	0.9	0.2	0.2
0.449	5.4522	5.4643	0.79843	1.4	1.4	0.9	0.9	0.2	0.2
0.45	5.4309	5.4412	0.78103	1.4	1.4	0.9	0.9	0.2	0.2
0.451	5.4355	5.4426	0.79888	1.4	1.4	0.9	0.9	0.2	0.2
0.452	5.4494	5.4566	0.82945	1.4	1.4	0.9	0.9	0.2	0.2
0.453	5.4685	5.4794	0.86817	1.4	1.4	0.9	0.9	0.2	0.2
0.454	5.4834	5.4954	0.89826	1.4	1.4	0.9	0.9	0.2	0.2
0.455	5.4881	5.5014	0.91528	1.4	1.4	0.9	0.9	0.2	0.2
0.456	5.4919	5.5065	0.93	1.4	1.4	0.9	0.9	0.2	0.2
0.457	5.5036	5.5176	0.95086	1.4	1.4	0.9	0.9	0.2	0.2
0.458	5.5063	5.5198	0.96009	1.4	1.4	0.9	0.9	0.2	0.2
0.459	5.5045	5.5171	0.96369	1.4	1.4	0.9	0.9	0.2	0.2
0.46	5.5026	5.5151	0.96742	1.4	1.4	0.9	0.9	0.2	0.2
0.461	5.4988	5.5112	0.96807	1.4	1.4	0.9	0.9	0.2	0.2
0.462	5.4923	5.5031	0.9675	1.4	1.4	0.9	0.9	0.2	0.2
0.463	5.4873	5.4965	0.96965	1.4	1.4	0.9	0.9	0.2	0.2
0.464	5.4777	5.4872	0.96707	1.4	1.4	0.9	0.9	0.2	0.2
0.465	5.4705	5.4799	0.96768	1.4	1.4	0.9	0.9	0.2	0.2
0.466	5.467	5.4777	0.97448	1.4	1.4	0.9	0.9	0.2	0.2
0.467	5.4741	5.4865	0.99304	1.4	1.4	0.9	0.9	0.2	0.2
0.468	5.4815	5.4933	1.0087	1.4	1.4	0.9	0.9	0.2	0.2
0.469	5.4866	5.4981	1.0213	1.4	1.4	0.9	0.9	0.2	0.2
0.47	5.4911	5.5017	1.0329	1.4	1.4	0.9	0.9	0.2	0.2
0.471	5.5015	5.5107	1.05	1.4	1.4	0.9	0.9	0.2	0.2
0.472	5.5083	5.5173	1.0632	1.4	1.4	0.9	0.9	0.2	0.2
0.473	5.5135	5.5217	1.0737	1.4	1.4	0.9	0.9	0.2	0.2
0.474	5.5132	5.5215	1.0792	1.4	1.4	0.9	0.9	0.2	0.2
0.475	5.5125	5.5203	1.0843	1.4	1.4	0.9	0.9	0.2	0.2
0.476	5.5199	5.5276	1.0991	1.4	1.4	0.9	0.9	0.2	0.2
0.477	5.5261	5.5351	1.114	1.4	1.4	0.9	0.9	0.2	0.2
0.478	5.521	5.5322	1.1166	1.4	1.4	0.9	0.9	0.2	0.2
0.479	5.5109	5.5237	1.1127	1.4	1.4	0.9	0.9	0.2	0.2
0.48	5.5065	5.5206	1.1157	1.4	1.4	0.9	0.9	0.2	0.2
0.481	5.5074	5.5217	1.1234	1.4	1.4	0.9	0.9	0.2	0.2
0.482	5.5025	5.5174	1.1242	1.4	1.4	0.9	0.9	0.2	0.2
0.483	5.4946	5.5099	1.1213	1.4	1.4	0.9	0.9	0.2	0.2
0.484	5.4911	5.5071	1.1246	1.4	1.4	0.9	0.9	0.2	0.2
0.485	5.4925	5.5107	1.1344	1.4	1.4	0.9	0.9	0.2	0.2
0.486	5.4915	5.5117	1.141	1.4	1.4	0.9	0.9	0.2	0.2
0.487	5.4931	5.5139	1.1497	1.4	1.4	0.9	0.9	0.2	0.2
0.488	5.492	5.5138	1.157	1.4	1.4	0.9	0.9	0.2	0.2
0.489	5.4966	5.5187	1.1712	1.4	1.4	0.9	0.9	0.2	0.2
0.49	5.5177	5.5403	1.2037	1.4	1.4	0.9	0.9	0.2	0.2
0.491	5.5327	5.5553	1.2289	1.4	1.4	0.9	0.9	0.2	0.2
0.492	5.5396	5.5615	1.2447	1.4	1.4	0.9	0.9	0.2	0.2
0.493	5.5475	5.5687	1.2636	1.4	1.4	0.9	0.9	0.2	0.2
0.494	5.5616	5.5819	1.2909	1.4	1.4	0.9	0.9	0.2	0.2
0.495	5.5773	5.5962	1.32	1.4	1.4	0.9	0.9	0.2	0.2
0.496	5.5964	5.6145	1.3554	1.4	1.4	0.9	0.9	0.2	0.2
0.497	5.6158	5.6334	1.3936	1.4	1.4	0.9	0.9	0.2	0.2
0.498	5.6366	5.6547	1.4369	1.4	1.4	0.9	0.9	0.2	0.2
0.499	5.6561	5.675	1.4805	1.4	1.4	0.9	0.9	0.2	0.2
0.5	5.6783	5.6986	1.5289	1.4	1.4	0.9	0.9	0.2	0.2
0.501	5.706	5.7269	1.5855	1.4	1.4	0.9	0.9	0.2	0.2
0.502	5.733	5.7531	1.6435	1.4	1.4	0.9	0.9	0.2	0.2
0.503	5.7676	5.7865	1.7116	1.4	1.4	0.9	0.9	0.2	0.2
0.504	5.8152	5.8342	1.7975	1.4	1.4	0.9	0.9	0.2	0.2
0.505	5.8589	5.8783	1.883	1.4	1.4	0.9	0.9	0.2	0.2
0.506	5.9007	5.9198	1.9701	1.4	1.4	0.9	0.9	0.2	0.2
0.507	5.9489	5.9671	2.0685	1.4	1.4	0.9	0.9	0.2	0.2
0.508	6.0034	6.0205	2.1772	1.4	1.4	0.9	0.9	0.2	0.2
0.509	6.0659	6.083	2.3011	1.4	1.4	0.9	0.9	0.2	0.2
0.51	6.1296	6.1474	2.433	1.4	1.4	0.9	0.9	0.2	0.2
0.511	6.1938	6.2124	2.5715	1.4	1.4	0.9	0.9	0.2	0.2
0.512	6.2644	6.2845	2.7235	1.4	1.4	0.9	0.9	0.2	0.2
0.513	6.3455	6.3669	2.8926	1.4	1.4	0.9	0.9	0.2	0.2
0.514	6.4339	6.4568	3.0756	1.4	1.4	0.9	0.9	0.2	0.2
0.515	6.5239	6.5472	3.2657	1.4	1.4	0.9	0.9	0.2	0.2
0.516	6.6206	6.6438	3.4691	1.4	1.4	0.9	0.9	0.2	0.2
0.517	6.7324	6.7556	3.6944	1.4	1.4	0.9	0.9	0.2	0.2
0.518	6.8529	6.8764	3.9346	1.4	1.4	0.9	0.9	0.2	0.2
0.519	6.9736	6.9967	4.1779	1.4	1.4	0.9	0.9	0.2	0.2
0.52	7.1012	7.1225	4.4298	1.4	1.4	0.9	0.9	0.2	0.2
0.521	7.238	7.2571	4.6936	1.4	1.4	0.9	0.9	0.2	0.2
0.522	7.3805	7.3983	4.9657	1.4	1.4	0.9	0.9	0.2	0.2
0.523	7.5255	7.5421	5.241	1.4	1.4	0.9	0.9	0.2	0.2
0.524	7.6684	7.6839	5.5124	1.4	1.4	0.9	0.9	0.2	0.2
0.525	7.8133	7.8288	5.7845	1.4	1.4	0.9	0.9	0.2	0.2
0.526	7.9594	7.975	6.0541	1.4	1.4	0.9	0.9	0.2	0.2
0.527	8.1056	8.1204	6.3182	1.4	1.4	0.9	0.9	0.2	0.2
0.528	8.2464	8.2598	6.5711	1.4	1.4	0.9	0.9	0.2	0.2
0.529	8.3819	8.3939	6.8137	1.4	1.4	0.9	0.9	0.2	0.2
0.53	8.5146	8.5253	7.0478	1.4	1.4	0.9	0.9	0.2	0.2
0.531	8.6431	8.6527	7.2709	1.4	1.4	0.9	0.9	0.2	0.2
0.532	8.761	8.7697	7.4761	1.4	1.4	0.9	0.9	0.2	0.2
0.533	8.8688	8.8765	7.6636	1.4	1.4	0.9	0.9	0.2	0.2
0.534	8.9733	8.9801	7.8416	1.4	1.4	0.9	0.9	0.2	0.2
0.535	9.0673	9.074	8.003	1.4	1.4	0.9	0.9	0.2	0.2
0.536	9.1472	9.1548	8.1442	1.4	1.4	0.9	0.9	0.2	0.2
0.537	9.2162	9.2251	8.269	1.4	1.4	0.9	0.9	0.2	0.2
0.538	9.2763	9.2872	8.3801	1.4	1.4	0.9	0.9	0.2	0.2
0.539	9.3256	9.3391	8.475	1.4	1.4	0.9	0.9	0.2	0.2
0.54	9.3654	9.3809	8.5551	1.4	1.4	0.9	0.9	0.2	0.2
0.541	9.3991	9.4159	8.625	1.4	1.4	0.9	0.9	0.2	0.2
0.542	9.4303	9.4487	8.6906	1.4	1.4	0.9	0.9	0.2	0.2
0.543	9.4573	9.4767	8.7495	1.4	1.4	0.9	0.9	0.2	0.2
0.544	9.4835	9.5033	8.8051	1.4	1.4	0.9	0.9	0.2	0.2
0.545	9.5113	9.5314	8.8613	1.4	1.4	0.9	0.9	0.2	0.2
0.546	9.5367	9.5574	8.9154	1.4	1.4	0.9	0.9	0.2	0.2
0.547	9.5628	9.584	8.9699	1.4	1.4	0.9	0.9	0.2	0.2
0.548	9.5885	9.6101	9.0232	1.4	1.4	0.9	0.9	0.2	0.2
0.549	9.614	9.6362	9.0758	1.4	1.4	0.9	0.9	0.2	0.2
0.55	9.6374	9.6605	9.1258	1.4	1.4	0.9	0.9	0.2	0.2
0.551	9.6593	9.6838	9.1738	1.4	1.4	0.9	0.9	0.2	0.2
0.552	9.6763	9.7026	9.216	1.4	1.4	0.9	0.9	0.2	0.2
0.553	9.6861	9.7144	9.2481	1.4	1.4	0.9	0.9	0.2	0.2
0.554	9.6903	9.7199	9.2712	1.4	1.4	0.9	0.9	0.2	0.2
0.555	9.6893	9.7204	9.2871	1.4	1.4	0.9	0.9	0.2	0.2
0.556	9.681	9.7139	9.2926	1.4	1.4	0.9	0.9	0.2	0.2
0.557	9.6616	9.6958	9.2819	1.4	1.4	0.9	0.9	0.2	0.2
0.558	9.6346	9.6701	9.259	1.4	1.4	0.9	0.9	0.2	0.2
0.559	9.5982	9.6354	9.2219	1.4	1.4	0.9	0.9	0.2	0.2
0.56	9.5499	9.5888	9.1678	1.4	1.4	0.9	0.9	0.2	0.2
0.561	9.4952	9.5354	9.1021	1.4	1.4	0.9	0.9	0.2	0.2
0.562	9.4352	9.4764	9.0259	1.4	1.4	0.9	0.9	0.2	0.2
0.563	9.3705	9.4126	8.9401	1.4	1.4	0.9	0.9	0.2	0.2
0.564	9.2994	9.3426	8.8427	1.4	1.4	0.9	0.9	0.2	0.2
0.565	9.2189	9.2634	8.7305	1.4	1.4	0.9	0.9	0.2	0.2
0.566	9.1326	9.178	8.6075	1.4	1.4	0.9	0.9	0.2	0.2
0.567	9.0421	9.088	8.4748	1.4	1.4	0.9	0.9	0.2	0.2
0.568	8.9459	8.9917	8.3313	1.4	1.4	0.9	0.9	0.2	0.2
0.569	8.8452	8.8914	8.1792	1.4	1.4	0.9	0.9	0.2	0.2
0.57	8.7404	8.7869	8.0184	1.4	1.4	0.9	0.9	0.2	0.2
0.571	8.6341	8.6809	7.853	1.4	1.4	0.9	0.9	0.2	0.2
0.572	8.5261	8.5731	7.6827	1.4	1.4	0.9	0.9	0.2	0.2
0.573	8.4179	8.4649	7.5101	1.4	1.4	0.9	0.9	0.2	0.2
0.574	8.3137	8.3606	7.3415	1.4	1.4	0.9	0.9	0.2	0.2
0.575	8.2143	8.2615	7.179	1.4	1.4	0.9	0.9	0.2	0.2
0.576	8.1206	8.1681	7.0238	1.4	1.4	0.9	0.9	0.2	0.2
0.577	8.0328	8.0807	6.877	1.4	1.4	0.9	0.9	0.2	0.2
0.578	7.9494	7.9967	6.7363	1.4	1.4	0.9	0.9	0.2	0.2
0.579	7.8677	7.9146	6.6	1.4	1.4	0.9	0.9	0.2	0.2
0.58	7.7926	7.8394	6.4739	1.4	1.4	0.9	0.9	0.2	0.2
0.581	7.7255	7.7721	6.3595	1.4	1.4	0.9	0.9	0.2	0.2
0.582	7.6594	7.706	6.2482	1.4	1.4	0.9	0.9	0.2	0.2
0.583	7.5965	7.6435	6.1426	1.4	1.4	0.9	0.9	0.2	0.2
0.584	7.5385	7.5859	6.0448	1.4	1.4	0.9	0.9	0.2	0.2
0.585	7.4853	7.5327	5.9541	1.4	1.4	0.9	0.9	0.2	0.2
0.586	7.4356	7.4831	5.8686	1.4	1.4	0.9	0.9	0.2	0.2
0.587	7.3907	7.4387	5.7906	1.4	1.4	0.9	0.9	0.2	0.2
0.588	7.3458	7.3937	5.7148	1.4	1.4	0.9	0.9	0.2	0.2
0.589	7.3045	7.3526	5.6455	1.4	1.4	0.9	0.9	0.2	0.2
0.59	7.269	7.3174	5.585	1.4	1.4	0.9	0.9	0.2	0.2
0.591	7.2379	7.2864	5.5309	1.4	1.4	0.9	0.9	0.2	0.2
0.592	7.2095	7.2573	5.481	1.4	1.4	0.9	0.9	0.2	0.2
0.593	7.1835	7.231	5.436	1.4	1.4	0.9	0.9	0.2	0.2
0.594	7.1625	7.2096	5.3986	1.4	1.4	0.9	0.9	0.2	0.2
0.595	7.1469	7.1934	5.3689	1.4	1.4	0.9	0.9	0.2	0.2
0.596	7.1295	7.176	5.3383	1.4	1.4	0.9	0.9	0.2	0.2
0.597	7.1128	7.1597	5.3097	1.4	1.4	0.9	0.9	0.2	0.2
0.598	7.0962	7.1432	5.2819	1.4	1.4	0.9	0.9	0.2	0.2
0.599	7.0799	7.127	5.2548	1.4	1.4	0.9	0.9	0.2	0.2
0.6	7.0632	7.1111	5.2276	1.4	1.4	0.9	0.9	0.2	0.2
0.601	7.0446	7.0932	5.1983	1.4	1.4	0.9	0.9	0.2	0.2
0.602	7.0225	7.0711	5.1649	1.4	1.4	0.9	0.9	0.2	0.2
0.603	7.0027	7.0518	5.1337	1.4	1.4	0.9	0.9	0.2	0.2
0.604	6.9832	7.0328	5.1016	1.4	1.4	0.9	0.9	0.2	0.2
0.605	6.9627	7.0129	5.0673	1.4	1.4	0.9	0.9	0.2	0.2
0.606	6.9405	6.991	5.0297	1.4	1.4	0.9	0.9	0.2	0.2
0.607	6.9153	6.9657	4.9869	1.4	1.4	0.9	0.9	0.2	0.2
0.608	6.8892	6.9396	4.9413	1.4	1.4	0.9	0.9	0.2	0.2
0.609	6.8629	6.9135	4.8935	1.4	1.4	0.9	0.9	0.2	0.2
0.61	6.8353	6.8867	4.8428	1.4	1.4	0.9	0.9	0.2	0.2
0.611	6.8029	6.8548	4.7847	1.4	1.4	0.9	0.9	0.2	0.2
0.612	6.7687	6.8203	4.7223	1.4	1.4	0.9	0.9	0.2	0.2
0.613	6.7364	6.7874	4.6602	1.4	1.4	0.9	0.9	0.2	0.2
0.614	6.703	6.7541	4.5959	1.4	1.4	0.9	0.9	0.2	0.2
0.615	6.6694	6.7202	4.5307	1.4	1.4	0.9	0.9	0.2	0.2
0.616	6.6367	6.6868	4.4662	1.4	1.4	0.9	0.9	0.2	0.2
0.617	6.6053	6.6547	4.4027	1.4	1.4	0.9	0.9	0.2	0.2
0.618	6.5737	6.6223	4.3393	1.4	1.4	0.9	0.9	0.2	0.2
0.619	6.5433	6.5915	4.2785	1.4	1.4	0.9	0.9	0.2	0.2
0.62	6.5148	6.5628	4.2214	1.4	1.4	0.9	0.9	0.2	0.2
0.621	6.4855	6.533	4.1645	1.4	1.4	0.9	0.9	0.2	0.2
0.622	6.4598	6.5068	4.1136	1.4	1.4	0.9	0.9	0.2	0.2
0.623	6.4397	6.4865	4.0717	1.4	1.4	0.9	0.9	0.2	0.2
0.624	6.4234	6.4706	4.0365	1.4	1.4	0.9	0.9	0.2	0.2
0.625	6.4087	6.456	4.0057	1.4	1.4	0.9	0.9	0.2	0.2
0.626	6.3986	6.4457	3.9826	1.4	1.4	0.9	0.9	0.2	0.2
0.627	6.3906	6.4378	3.9644	1.4	1.4	0.9	0.9	0.2	0.2
0.628	6.3818	6.4296	3.9481	1.4	1.4	0.9	0.9	0.2	0.2
0.629	6.3751	6.4229	3.9361	1.4	1.4	0.9	0.9	0.2	0.2
0.63	6.3721	6.4189	3.93	1.4	1.4	0.9	0.9	0.2	0.2
0.631	6.3709	6.4169	3.9269	1.4	1.4	0.9	0.9	0.2	0.2
0.632	6.368	6.4137	3.9222	1.4	1.4	0.9	0.9	0.2	0.2
0.633	6.3618	6.4076	3.9131	1.4	1.4	0.9	0.9	0.2	0.2
0.634	6.3526	6.3986	3.8987	1.4	1.4	0.9	0.9	0.2	0.2
0.635	6.3386	6.3842	3.8753	1.4	1.4	0.9	0.9	0.2	0.2
0.636	6.3234	6.3682	3.8463	1.4	1.4	0.9	0.9	0.2	0.2
0.637	6.3051	6.3502	3.8101	1.4	1.4	0.9	0.9	0.2	0.2
0.638	6.2831	6.3287	3.7647	1.4	1.4	0.9	0.9	0.2	0.2
0.639	6.2579	6.3035	3.7106	1.4	1.4	0.9	0.9	0.2	0.2
0.64	6.226	6.2716	3.6438	1.4	1.4	0.9	0.9	0.2	0.2
0.641	6.1906	6.2359	3.5676	1.4	1.4	0.9	0.9	0.2	0.2
0.642	6.1547	6.1994	3.4866	1.4	1.4	0.9	0.9	0.2	0.2
0.643	6.1198	6.1639	3.4037	1.4	1.4	0.9	0.9	0.2	0.2
0.644	6.0868	6.1292	3.32	1.4	1.4	0.9	0.9	0.2	0.2
0.645	6.0531	6.0938	3.2339	1.4	1.4	0.9	0.9	0.2	0.2
0.646	6.0174	6.057	3.1452	1.4	1.4	0.9	0.9	0.2	0.2
0.647	5.9815	6.0201	3.0558	1.4	1.4	0.9	0.9	0.2	0.2
0.648	5.9482	5.9853	2.9703	1.4	1.4	0.9	0.9	0.2	0.2
0.649	5.9179	5.9534	2.8907	1.4	1.4	0.9	0.9	0.2	0.2
0.65	5.891	5.9247	2.8173	1.4	1.4	0.9	0.9	0.2	0.2
0.651	5.8657	5.8981	2.7497	1.4	1.4	0.9	0.9	0.2	0.2
0.652	5.8438	5.8744	2.6894	1.4	1.4	0.9	0.9	0.2	0.2
0.653	5.8268	5.8551	2.6383	1.4	1.4	0.9	0.9	0.2	0.2
0.654	5.8104	5.8368	2.5908	1.4	1.4	0.9	0.9	0.2	0.2
0.655	5.7978	5.8227	2.5501	1.4	1.4	0.9	0.9	0.2	0.2
0.656	5.7899	5.8138	2.5166	1.4	1.4	0.9	0.9	0.2	0.2
0.657	5.7826	5.806	2.4839	1.4	1.4	0.9	0.9	0.2	0.2
0.658	5.7747	5.7968	2.4486	1.4	1.4	0.9	0.9	0.2	0.2
0.659	5.7662	5.787	2.4106	1.4	1.4	0.9	0.9	0.2	0.2
0.66	5.7562	5.7753	2.3668	1.4	1.4	0.9	0.9	0.2	0.2
0.661	5.7454	5.762	2.317	1.4	1.4	0.9	0.9	0.2	0.2
0.662	5.7326	5.7461	2.2617	1.4	1.4	0.9	0.9	0.2	0.2
0.663	5.7193	5.7297	2.2017	1.4	1.4	0.9	0.9	0.2	0.2
0.664	5.7058	5.7125	2.1373	1.4	1.4	0.9	0.9	0.2	0.2
0.665	5.6924	5.6945	2.0704	1.4	1.4	0.9	0.9	0.2	0.2
0.666	5.6797	5.677	2.0021	1.4	1.4	0.9	0.9	0.2	0.2
0.667	5.6715	5.6636	1.9377	1.4	1.4	0.9	0.9	0.2	0.2
0.668	5.6665	5.6532	1.876	1.4	1.4	0.9	0.9	0.2	0.2
0.669	5.666	5.6473	1.8201	1.4	1.4	0.9	0.9	0.2	0.2
0.67	5.6724	5.6482	1.7723	1.4	1.4	0.9	0.9	0.2	0.2
0.671	5.6827	5.6527	1.729	1.4	1.4	0.9	0.9	0.2	0.2
0.672	5.6976	5.6613	1.6912	1.4	1.4	0.9	0.9	0.2	0.2
0.673	5.7179	5.6738	1.6591	1.4	1.4	0.9	0.9	0.2	0.2
0.674	5.741	5.688	1.629	1.4	1.4	0.9	0.9	0.2	0.2
0.675	5.7664	5.7041	1.6012	1.4	1.4	0.9	0.9	0.2	0.2
0.676	5.7998	5.7273	1.5808	1.4	1.4	0.9	0.9	0.2	0.2
0.677	5.8377	5.7541	1.5634	1.4	1.4	0.9	0.9	0.2	0.2
0.678	5.8775	5.7816	1.5472	1.4	1.4	0.9	0.9	0.2	0.2
0.679	5.9217	5.8127	1.535	1.4	1.4	0.9	0.9	0.2	0.2
0.68	5.9698	5.8474	1.5271	1.4	1.4	0.9	0.9	0.2	0.2
0.681	6.0235	5.8871	1.5276	1.4	1.4	0.9	0.9	0.2	0.2
0.682	6.0812	5.9309	1.5377	1.4	1.4	0.9	0.9	0.2	0.2
0.683	6.1453	5.9817	1.5624	1.4	1.4	0.9	0.9	0.2	0.2
0.684	6.215	6.0394	1.6041	1.4	1.4	0.9	0.9	0.2	0.2
0.685	6.2871	6.1012	1.6638	1.4	1.4	0.9	0.9	0.2	0.2
0.686	6.3611	6.1662	1.7429	1.4	1.4	0.9	0.9	0.2	0.2
0.687	6.4375	6.2351	1.8469	1.4	1.4	0.9	0.9	0.2	0.2
0.688	6.5165	6.3091	1.9804	1.4	1.4	0.9	0.9	0.2	0.2
0.689	6.5993	6.3899	2.1463	1.4	1.4	0.9	0.9	0.2	0.2
0.69	6.6927	6.4833	2.3548	1.4	1.4	0.9	0.9	0.2	0.2
0.691	6.7951	6.5879	2.6069	1.4	1.4	0.9	0.9	0.2	0.2
0.692	6.9116	6.7081	2.9084	1.4	1.4	0.9	0.9	0.2	0.2
0.693	7.0492	6.8504	3.267	1.4	1.4	0.9	0.9	0.2	0.2
0.694	7.2123	7.0188	3.6857	1.4	1.4	0.9	0.9	0.2	0.2
0.695	7.4056	7.2179	4.1669	1.4	1.4	0.9	0.9	0.2	0.2
0.696	7.632	7.4501	4.7104	1.4	1.4	0.9	0.9	0.2	0.2
0.697	7.8983	7.722	5.319	1.4	1.4	0.9	0.9	0.2	0.2
0.698	8.2044	8.0337	5.9881	1.4	1.4	0.9	0.9	0.2	0.2
0.699	8.5518	8.3862	6.7124	1.4	1.4	0.9	0.9	0.2	0.2
0.7	8.9401	8.779	7.4842	1.4	1.4	0.9	0.9	0.2	0.2
0.701	9.3669	9.2098	8.2969	1.4	1.4	0.9	0.9	0.2	0.2
0.702	9.8285	9.6749	9.1405	1.4	1.4	0.9	0.9	0.2	0.2
0.703	10.3209	10.1704	10.0049	1.4	1.4	0.9	0.9	0.2	0.2
0.704	10.8421	10.6944	10.8858	1.4	1.4	0.9	0.9	0.2	0.2
0.705	11.387	11.2417	11.7746	1.4	1.4	0.9	0.9	0.2	0.2
0.706	11.9494	11.8061	12.6626	1.4	1.4	0.9	0.9	0.2	0.2
0.707	12.5278	12.3859	13.5471	1.4	1.4	0.9	0.9	0.2	0.2
0.708	13.1211	12.9799	14.4257	1.4	1.4	0.9	0.9	0.2	0.2
0.709	13.7249	13.5838	15.2946	1.4	1.4	0.9	0.9	0.2	0.2
0.71	14.3378	14.1962	16.154	1.4	1.4	0.9	0.9	0.2	0.2
0.711	14.9619	14.8193	17.0063	1.4	1.4	0.9	0.9	0.2	0.2
0.712	15.5957	15.4509	17.8502	1.4	1.4	0.9	0.9	0.2	0.2
0.713	16.2405	16.0925	18.6877	1.4	1.4	0.9	0.9	0.2	0.2
0.714	16.8953	16.7433	19.5184	1.4	1.4	0.9	0.9	0.2	0.2
0.715	17.5588	17.4014	20.3418	1.4	1.4	0.9	0.9	0.2	0.2
0.716	18.231	18.0668	21.1591	1.4	1.4	0.9	0.9	0.2	0.2
0.717	18.9117	18.7396	21.9705	1.4	1.4	0.9	0.9	0.2	0.2
0.718	19.5993	19.4185	22.7746	1.4	1.4	0.9	0.9	0.2	0.2
0.719	20.2919	20.1018	23.5706	1.4	1.4	0.9	0.9	0.2	0.2
0.72	20.9876	20.7875	24.3571	1.4	1.4	0.9	0.9	0.2	0.2
0.721	21.6857	21.4746	25.1334	1.4	1.4	0.9	0.9	0.2	0.2
0.722	22.3837	22.1609	25.8987	1.4	1.4	0.9	0.9	0.2	0.2
0.723	23.078	22.8436	26.6502	1.4	1.4	0.9	0.9	0.2	0.2
0.724	23.7674	23.5214	27.387	1.4	1.4	0.9	0.9	0.2	0.2
0.725	24.449	24.1909	28.1065	1.4	1.4	0.9	0.9	0.2	0.2
0.726	25.1203	24.8498	28.8066	1.4	1.4	0.9	0.9	0.2	0.2
0.727	25.7803	25.4972	29.4871	1.4	1.4	0.9	0.9	0.2	0.2
0.728	26.4254	26.1293	30.1454	1.4	1.4	0.9	0.9	0.2	0.2
0.729	27.0527	26.7433	30.7798	1.4	1.4	0.9	0.9	0.2	0.2
0.73	27.6616	27.3387	31.39	1.4	1.4	0.9	0.9	0.2	0.2
0.731	28.251	27.9146	31.9756	1.4	1.4	0.9	0.9	0.2	0.2
0.732	28.8207	28.4707	32.5364	1.4	1.4	0.9	0.9	0.2	0.2
0.733	29.3681	29.0047	33.0718	1.4	1.4	0.9	0.9	0.2	0.2
