*Name: Leaf mid
Type: Leaf Spectrum
Particle Size: Solid
Wavelength Range: All

Origin: Remote Sensing Laboratories, University of Zurich

Description: abaxial reflectance, adaxial reflectance, and adaxial transmittance measured by ASD Integrating Sphere

Measurement: Hemispherical Conical Reflectance Factor HCRF

First Column:  X Wavelength (micrometers)
Second Column:  Y Reflectance (percent)
First X Value: 0.369
Last X Value: 2.493
Number of X Values: 2125
Additional Information:  None*

*Number of Lambda pertinent values : *  2125
*Lambda_min - Lambda_max : *  0.369 2.493
*Leaf parameters : Upper type of roughness [0/1 : cst/var] - Lower type of roughness* 0 0
*Lambda - Lower reflectance - Upper reflectance - Transmittance - Lower refraction index - Upper refracton index - Lower roughness [0;1] - Upper roughness - Lower roughness index [0.1;0.3] - Upper roughness index *
0.369	0.75834	0.79109	0.037452	1.4	1.4	0.9	0.9	0.2	0.2
0.37	1.2407	1.2794	0.065041	1.4	1.4	0.9	0.9	0.2	0.2
0.371	1.7195	1.7604	0.061142	1.4	1.4	0.9	0.9	0.2	0.2
0.372	2.1016	2.1345	-0.096418	1.4	1.4	0.9	0.9	0.2	0.2
0.373	2.5287	2.5472	-0.10084	1.4	1.4	0.9	0.9	0.2	0.2
0.374	2.9306	2.9312	-0.012716	1.4	1.4	0.9	0.9	0.2	0.2
0.375	3.2385	3.2209	0.092017	1.4	1.4	0.9	0.9	0.2	0.2
0.376	3.4091	3.3839	0.11497	1.4	1.4	0.9	0.9	0.2	0.2
0.377	3.476	3.445	0.22463	1.4	1.4	0.9	0.9	0.2	0.2
0.378	3.3881	3.3504	0.37961	1.4	1.4	0.9	0.9	0.2	0.2
0.379	3.4262	3.3977	0.48485	1.4	1.4	0.9	0.9	0.2	0.2
0.38	3.4657	3.4535	0.71068	1.4	1.4	0.9	0.9	0.2	0.2
0.381	3.4657	3.4648	0.74279	1.4	1.4	0.9	0.9	0.2	0.2
0.382	3.466	3.4718	0.68548	1.4	1.4	0.9	0.9	0.2	0.2
0.383	3.5115	3.5254	0.7284	1.4	1.4	0.9	0.9	0.2	0.2
0.384	3.5264	3.5547	0.72846	1.4	1.4	0.9	0.9	0.2	0.2
0.385	3.4727	3.5086	0.59259	1.4	1.4	0.9	0.9	0.2	0.2
0.386	3.3859	3.4074	0.38561	1.4	1.4	0.9	0.9	0.2	0.2
0.387	3.4522	3.4616	0.44782	1.4	1.4	0.9	0.9	0.2	0.2
0.388	3.5164	3.5188	0.51651	1.4	1.4	0.9	0.9	0.2	0.2
0.389	3.5316	3.5321	0.49733	1.4	1.4	0.9	0.9	0.2	0.2
0.39	3.5853	3.5899	0.51467	1.4	1.4	0.9	0.9	0.2	0.2
0.391	3.6708	3.6773	0.62628	1.4	1.4	0.9	0.9	0.2	0.2
0.392	3.7118	3.7203	0.6595	1.4	1.4	0.9	0.9	0.2	0.2
0.393	3.7655	3.7664	0.71037	1.4	1.4	0.9	0.9	0.2	0.2
0.394	3.8346	3.8237	0.83508	1.4	1.4	0.9	0.9	0.2	0.2
0.395	3.8748	3.8533	0.90642	1.4	1.4	0.9	0.9	0.2	0.2
0.396	3.899	3.8723	0.94913	1.4	1.4	0.9	0.9	0.2	0.2
0.397	3.9114	3.8877	0.97944	1.4	1.4	0.9	0.9	0.2	0.2
0.398	3.9236	3.9067	0.98844	1.4	1.4	0.9	0.9	0.2	0.2
0.399	3.9491	3.9362	1.0085	1.4	1.4	0.9	0.9	0.2	0.2
0.4	3.9445	3.9285	0.95865	1.4	1.4	0.9	0.9	0.2	0.2
0.401	3.9502	3.944	0.91089	1.4	1.4	0.9	0.9	0.2	0.2
0.402	3.9287	3.9353	0.81905	1.4	1.4	0.9	0.9	0.2	0.2
0.403	3.8919	3.9064	0.72311	1.4	1.4	0.9	0.9	0.2	0.2
0.404	3.8843	3.9031	0.68559	1.4	1.4	0.9	0.9	0.2	0.2
0.405	3.8461	3.8699	0.59234	1.4	1.4	0.9	0.9	0.2	0.2
0.406	3.8134	3.8391	0.51006	1.4	1.4	0.9	0.9	0.2	0.2
0.407	3.8556	3.8731	0.56091	1.4	1.4	0.9	0.9	0.2	0.2
0.408	3.8561	3.8675	0.53955	1.4	1.4	0.9	0.9	0.2	0.2
0.409	3.841	3.8491	0.50024	1.4	1.4	0.9	0.9	0.2	0.2
0.41	3.8558	3.8655	0.52598	1.4	1.4	0.9	0.9	0.2	0.2
0.411	3.8833	3.8958	0.57429	1.4	1.4	0.9	0.9	0.2	0.2
0.412	3.9287	3.9449	0.65396	1.4	1.4	0.9	0.9	0.2	0.2
0.413	3.9837	4.0052	0.73482	1.4	1.4	0.9	0.9	0.2	0.2
0.414	3.998	4.0251	0.73063	1.4	1.4	0.9	0.9	0.2	0.2
0.415	4.0175	4.0511	0.7366	1.4	1.4	0.9	0.9	0.2	0.2
0.416	4.0456	4.0825	0.76863	1.4	1.4	0.9	0.9	0.2	0.2
0.417	4.0577	4.0937	0.77822	1.4	1.4	0.9	0.9	0.2	0.2
0.418	4.0628	4.0965	0.77276	1.4	1.4	0.9	0.9	0.2	0.2
0.419	4.0763	4.1076	0.7836	1.4	1.4	0.9	0.9	0.2	0.2
0.42	4.0958	4.1254	0.80794	1.4	1.4	0.9	0.9	0.2	0.2
0.421	4.1214	4.1476	0.83241	1.4	1.4	0.9	0.9	0.2	0.2
0.422	4.1273	4.1508	0.82343	1.4	1.4	0.9	0.9	0.2	0.2
0.423	4.1334	4.1572	0.83115	1.4	1.4	0.9	0.9	0.2	0.2
0.424	4.1562	4.1819	0.87062	1.4	1.4	0.9	0.9	0.2	0.2
0.425	4.1708	4.197	0.89298	1.4	1.4	0.9	0.9	0.2	0.2
0.426	4.1818	4.2087	0.90256	1.4	1.4	0.9	0.9	0.2	0.2
0.427	4.2048	4.2325	0.91511	1.4	1.4	0.9	0.9	0.2	0.2
0.428	4.2252	4.2529	0.93152	1.4	1.4	0.9	0.9	0.2	0.2
0.429	4.2461	4.2728	0.95861	1.4	1.4	0.9	0.9	0.2	0.2
0.43	4.2558	4.2814	0.96948	1.4	1.4	0.9	0.9	0.2	0.2
0.431	4.2505	4.2762	0.95425	1.4	1.4	0.9	0.9	0.2	0.2
0.432	4.262	4.288	0.97633	1.4	1.4	0.9	0.9	0.2	0.2
0.433	4.2825	4.3084	1.0153	1.4	1.4	0.9	0.9	0.2	0.2
0.434	4.3001	4.3262	1.0491	1.4	1.4	0.9	0.9	0.2	0.2
0.435	4.3136	4.3395	1.0685	1.4	1.4	0.9	0.9	0.2	0.2
0.436	4.3324	4.3585	1.102	1.4	1.4	0.9	0.9	0.2	0.2
0.437	4.3504	4.3774	1.1488	1.4	1.4	0.9	0.9	0.2	0.2
0.438	4.3675	4.3947	1.1896	1.4	1.4	0.9	0.9	0.2	0.2
0.439	4.3816	4.409	1.224	1.4	1.4	0.9	0.9	0.2	0.2
0.44	4.3892	4.417	1.242	1.4	1.4	0.9	0.9	0.2	0.2
0.441	4.3952	4.4223	1.2462	1.4	1.4	0.9	0.9	0.2	0.2
0.442	4.3965	4.4228	1.2491	1.4	1.4	0.9	0.9	0.2	0.2
0.443	4.3961	4.4222	1.2578	1.4	1.4	0.9	0.9	0.2	0.2
0.444	4.3855	4.4125	1.2479	1.4	1.4	0.9	0.9	0.2	0.2
0.445	4.3774	4.4049	1.2426	1.4	1.4	0.9	0.9	0.2	0.2
0.446	4.3747	4.4015	1.2425	1.4	1.4	0.9	0.9	0.2	0.2
0.447	4.3792	4.4061	1.2516	1.4	1.4	0.9	0.9	0.2	0.2
0.448	4.3894	4.4165	1.2714	1.4	1.4	0.9	0.9	0.2	0.2
0.449	4.4016	4.4282	1.2944	1.4	1.4	0.9	0.9	0.2	0.2
0.45	4.4121	4.4379	1.3145	1.4	1.4	0.9	0.9	0.2	0.2
0.451	4.4211	4.447	1.339	1.4	1.4	0.9	0.9	0.2	0.2
0.452	4.4415	4.4685	1.3849	1.4	1.4	0.9	0.9	0.2	0.2
0.453	4.4667	4.4948	1.4384	1.4	1.4	0.9	0.9	0.2	0.2
0.454	4.4823	4.5124	1.4699	1.4	1.4	0.9	0.9	0.2	0.2
0.455	4.4878	4.5202	1.483	1.4	1.4	0.9	0.9	0.2	0.2
0.456	4.4909	4.5261	1.4963	1.4	1.4	0.9	0.9	0.2	0.2
0.457	4.5028	4.5398	1.5263	1.4	1.4	0.9	0.9	0.2	0.2
0.458	4.5089	4.5469	1.5403	1.4	1.4	0.9	0.9	0.2	0.2
0.459	4.5116	4.5494	1.5456	1.4	1.4	0.9	0.9	0.2	0.2
0.46	4.5137	4.5513	1.5512	1.4	1.4	0.9	0.9	0.2	0.2
0.461	4.5143	4.5526	1.5555	1.4	1.4	0.9	0.9	0.2	0.2
0.462	4.5122	4.5499	1.5551	1.4	1.4	0.9	0.9	0.2	0.2
0.463	4.511	4.5476	1.5569	1.4	1.4	0.9	0.9	0.2	0.2
0.464	4.507	4.5435	1.5561	1.4	1.4	0.9	0.9	0.2	0.2
0.465	4.5057	4.5425	1.5642	1.4	1.4	0.9	0.9	0.2	0.2
0.466	4.5081	4.5446	1.5801	1.4	1.4	0.9	0.9	0.2	0.2
0.467	4.5177	4.5533	1.6037	1.4	1.4	0.9	0.9	0.2	0.2
0.468	4.5246	4.5601	1.6185	1.4	1.4	0.9	0.9	0.2	0.2
0.469	4.5287	4.5645	1.6292	1.4	1.4	0.9	0.9	0.2	0.2
0.47	4.5308	4.5664	1.6346	1.4	1.4	0.9	0.9	0.2	0.2
0.471	4.5405	4.5755	1.6512	1.4	1.4	0.9	0.9	0.2	0.2
0.472	4.5475	4.5827	1.6628	1.4	1.4	0.9	0.9	0.2	0.2
0.473	4.5524	4.5885	1.6724	1.4	1.4	0.9	0.9	0.2	0.2
0.474	4.5524	4.589	1.6757	1.4	1.4	0.9	0.9	0.2	0.2
0.475	4.5536	4.5896	1.6791	1.4	1.4	0.9	0.9	0.2	0.2
0.476	4.5634	4.5992	1.6962	1.4	1.4	0.9	0.9	0.2	0.2
0.477	4.5714	4.6079	1.7113	1.4	1.4	0.9	0.9	0.2	0.2
0.478	4.5705	4.608	1.7148	1.4	1.4	0.9	0.9	0.2	0.2
0.479	4.5656	4.6034	1.7145	1.4	1.4	0.9	0.9	0.2	0.2
0.48	4.5642	4.6024	1.7194	1.4	1.4	0.9	0.9	0.2	0.2
0.481	4.5663	4.6049	1.7288	1.4	1.4	0.9	0.9	0.2	0.2
0.482	4.5646	4.6038	1.7335	1.4	1.4	0.9	0.9	0.2	0.2
0.483	4.5611	4.6007	1.7351	1.4	1.4	0.9	0.9	0.2	0.2
0.484	4.5612	4.6007	1.7387	1.4	1.4	0.9	0.9	0.2	0.2
0.485	4.5675	4.6072	1.7527	1.4	1.4	0.9	0.9	0.2	0.2
0.486	4.5724	4.6126	1.7641	1.4	1.4	0.9	0.9	0.2	0.2
0.487	4.5789	4.6186	1.7788	1.4	1.4	0.9	0.9	0.2	0.2
0.488	4.5833	4.6215	1.7885	1.4	1.4	0.9	0.9	0.2	0.2
0.489	4.5926	4.6305	1.804	1.4	1.4	0.9	0.9	0.2	0.2
0.49	4.6146	4.6532	1.8419	1.4	1.4	0.9	0.9	0.2	0.2
0.491	4.6288	4.6681	1.8657	1.4	1.4	0.9	0.9	0.2	0.2
0.492	4.6363	4.6754	1.878	1.4	1.4	0.9	0.9	0.2	0.2
0.493	4.6439	4.6834	1.8942	1.4	1.4	0.9	0.9	0.2	0.2
0.494	4.6563	4.697	1.9195	1.4	1.4	0.9	0.9	0.2	0.2
0.495	4.6713	4.7124	1.9515	1.4	1.4	0.9	0.9	0.2	0.2
0.496	4.6907	4.731	1.9916	1.4	1.4	0.9	0.9	0.2	0.2
0.497	4.7119	4.7512	2.0365	1.4	1.4	0.9	0.9	0.2	0.2
0.498	4.7358	4.7743	2.0861	1.4	1.4	0.9	0.9	0.2	0.2
0.499	4.7604	4.7985	2.1372	1.4	1.4	0.9	0.9	0.2	0.2
0.5	4.7867	4.8245	2.1911	1.4	1.4	0.9	0.9	0.2	0.2
0.501	4.8173	4.855	2.2567	1.4	1.4	0.9	0.9	0.2	0.2
0.502	4.8475	4.8865	2.3259	1.4	1.4	0.9	0.9	0.2	0.2
0.503	4.8842	4.9252	2.4084	1.4	1.4	0.9	0.9	0.2	0.2
0.504	4.9334	4.976	2.5122	1.4	1.4	0.9	0.9	0.2	0.2
0.505	4.9816	5.0254	2.6114	1.4	1.4	0.9	0.9	0.2	0.2
0.506	5.0281	5.0739	2.7127	1.4	1.4	0.9	0.9	0.2	0.2
0.507	5.0803	5.1288	2.8293	1.4	1.4	0.9	0.9	0.2	0.2
0.508	5.139	5.1896	2.958	1.4	1.4	0.9	0.9	0.2	0.2
0.509	5.205	5.2572	3.1006	1.4	1.4	0.9	0.9	0.2	0.2
0.51	5.2729	5.326	3.2505	1.4	1.4	0.9	0.9	0.2	0.2
0.511	5.3415	5.3961	3.4081	1.4	1.4	0.9	0.9	0.2	0.2
0.512	5.416	5.4719	3.579	1.4	1.4	0.9	0.9	0.2	0.2
0.513	5.5011	5.5578	3.7672	1.4	1.4	0.9	0.9	0.2	0.2
0.514	5.5908	5.648	3.9652	1.4	1.4	0.9	0.9	0.2	0.2
0.515	5.6817	5.7395	4.1711	1.4	1.4	0.9	0.9	0.2	0.2
0.516	5.779	5.8372	4.3931	1.4	1.4	0.9	0.9	0.2	0.2
0.517	5.8904	5.949	4.6398	1.4	1.4	0.9	0.9	0.2	0.2
0.518	6.0116	6.0705	4.9024	1.4	1.4	0.9	0.9	0.2	0.2
0.519	6.1331	6.1929	5.1681	1.4	1.4	0.9	0.9	0.2	0.2
0.52	6.2589	6.3202	5.4454	1.4	1.4	0.9	0.9	0.2	0.2
0.521	6.393	6.4554	5.7353	1.4	1.4	0.9	0.9	0.2	0.2
0.522	6.5325	6.5956	6.0328	1.4	1.4	0.9	0.9	0.2	0.2
0.523	6.6733	6.7372	6.3302	1.4	1.4	0.9	0.9	0.2	0.2
0.524	6.8119	6.8761	6.6251	1.4	1.4	0.9	0.9	0.2	0.2
0.525	6.9516	7.0157	6.9216	1.4	1.4	0.9	0.9	0.2	0.2
0.526	7.0916	7.1552	7.2129	1.4	1.4	0.9	0.9	0.2	0.2
0.527	7.2312	7.2938	7.4955	1.4	1.4	0.9	0.9	0.2	0.2
0.528	7.3639	7.4256	7.7626	1.4	1.4	0.9	0.9	0.2	0.2
0.529	7.4915	7.5529	8.0203	1.4	1.4	0.9	0.9	0.2	0.2
0.53	7.6162	7.6772	8.2701	1.4	1.4	0.9	0.9	0.2	0.2
0.531	7.7373	7.7983	8.509	1.4	1.4	0.9	0.9	0.2	0.2
0.532	7.8489	7.9102	8.7293	1.4	1.4	0.9	0.9	0.2	0.2
0.533	7.9509	8.0125	8.9297	1.4	1.4	0.9	0.9	0.2	0.2
0.534	8.0493	8.1112	9.121	1.4	1.4	0.9	0.9	0.2	0.2
0.535	8.1387	8.2014	9.295	1.4	1.4	0.9	0.9	0.2	0.2
0.536	8.2156	8.2788	9.4471	1.4	1.4	0.9	0.9	0.2	0.2
0.537	8.2822	8.3464	9.5813	1.4	1.4	0.9	0.9	0.2	0.2
0.538	8.3412	8.4065	9.7037	1.4	1.4	0.9	0.9	0.2	0.2
0.539	8.3905	8.4573	9.8095	1.4	1.4	0.9	0.9	0.2	0.2
0.54	8.431	8.4991	9.8971	1.4	1.4	0.9	0.9	0.2	0.2
0.541	8.4656	8.5348	9.9737	1.4	1.4	0.9	0.9	0.2	0.2
0.542	8.4986	8.5694	10.0478	1.4	1.4	0.9	0.9	0.2	0.2
0.543	8.5281	8.6009	10.1166	1.4	1.4	0.9	0.9	0.2	0.2
0.544	8.5566	8.631	10.181	1.4	1.4	0.9	0.9	0.2	0.2
0.545	8.5875	8.6634	10.2482	1.4	1.4	0.9	0.9	0.2	0.2
0.546	8.6174	8.6948	10.3141	1.4	1.4	0.9	0.9	0.2	0.2
0.547	8.6481	8.727	10.3794	1.4	1.4	0.9	0.9	0.2	0.2
0.548	8.6785	8.7589	10.4424	1.4	1.4	0.9	0.9	0.2	0.2
0.549	8.7085	8.7909	10.5056	1.4	1.4	0.9	0.9	0.2	0.2
0.55	8.7359	8.8198	10.5653	1.4	1.4	0.9	0.9	0.2	0.2
0.551	8.7613	8.8471	10.6215	1.4	1.4	0.9	0.9	0.2	0.2
0.552	8.7821	8.8702	10.6705	1.4	1.4	0.9	0.9	0.2	0.2
0.553	8.7958	8.8858	10.7062	1.4	1.4	0.9	0.9	0.2	0.2
0.554	8.8036	8.8953	10.7311	1.4	1.4	0.9	0.9	0.2	0.2
0.555	8.8067	8.9004	10.7488	1.4	1.4	0.9	0.9	0.2	0.2
0.556	8.803	8.8988	10.7549	1.4	1.4	0.9	0.9	0.2	0.2
0.557	8.7891	8.8866	10.7432	1.4	1.4	0.9	0.9	0.2	0.2
0.558	8.7686	8.8676	10.7203	1.4	1.4	0.9	0.9	0.2	0.2
0.559	8.7403	8.8403	10.6838	1.4	1.4	0.9	0.9	0.2	0.2
0.56	8.7008	8.8015	10.6277	1.4	1.4	0.9	0.9	0.2	0.2
0.561	8.6545	8.7557	10.5566	1.4	1.4	0.9	0.9	0.2	0.2
0.562	8.6034	8.7049	10.4742	1.4	1.4	0.9	0.9	0.2	0.2
0.563	8.5476	8.6497	10.3833	1.4	1.4	0.9	0.9	0.2	0.2
0.564	8.4851	8.5877	10.2798	1.4	1.4	0.9	0.9	0.2	0.2
0.565	8.4144	8.5172	10.161	1.4	1.4	0.9	0.9	0.2	0.2
0.566	8.3381	8.441	10.0298	1.4	1.4	0.9	0.9	0.2	0.2
0.567	8.2572	8.3598	9.8863	1.4	1.4	0.9	0.9	0.2	0.2
0.568	8.1708	8.2733	9.732	1.4	1.4	0.9	0.9	0.2	0.2
0.569	8.08	8.183	9.5706	1.4	1.4	0.9	0.9	0.2	0.2
0.57	7.9851	8.0883	9.4004	1.4	1.4	0.9	0.9	0.2	0.2
0.571	7.8887	7.9918	9.226	1.4	1.4	0.9	0.9	0.2	0.2
0.572	7.7896	7.8926	9.0461	1.4	1.4	0.9	0.9	0.2	0.2
0.573	7.6896	7.7921	8.8619	1.4	1.4	0.9	0.9	0.2	0.2
0.574	7.5924	7.6942	8.6789	1.4	1.4	0.9	0.9	0.2	0.2
0.575	7.4998	7.6005	8.5009	1.4	1.4	0.9	0.9	0.2	0.2
0.576	7.413	7.5126	8.3328	1.4	1.4	0.9	0.9	0.2	0.2
0.577	7.3312	7.4301	8.1748	1.4	1.4	0.9	0.9	0.2	0.2
0.578	7.2523	7.3505	8.0213	1.4	1.4	0.9	0.9	0.2	0.2
0.579	7.1757	7.2729	7.8712	1.4	1.4	0.9	0.9	0.2	0.2
0.58	7.1053	7.2015	7.7306	1.4	1.4	0.9	0.9	0.2	0.2
0.581	7.0424	7.1379	7.6035	1.4	1.4	0.9	0.9	0.2	0.2
0.582	6.9803	7.0752	7.48	1.4	1.4	0.9	0.9	0.2	0.2
0.583	6.9211	7.0155	7.3633	1.4	1.4	0.9	0.9	0.2	0.2
0.584	6.8669	6.9608	7.2559	1.4	1.4	0.9	0.9	0.2	0.2
0.585	6.8168	6.9103	7.1558	1.4	1.4	0.9	0.9	0.2	0.2
0.586	6.7689	6.862	7.0602	1.4	1.4	0.9	0.9	0.2	0.2
0.587	6.7255	6.8176	6.9723	1.4	1.4	0.9	0.9	0.2	0.2
0.588	6.6828	6.7736	6.8868	1.4	1.4	0.9	0.9	0.2	0.2
0.589	6.6453	6.735	6.8105	1.4	1.4	0.9	0.9	0.2	0.2
0.59	6.6143	6.7035	6.7463	1.4	1.4	0.9	0.9	0.2	0.2
0.591	6.5873	6.6762	6.6906	1.4	1.4	0.9	0.9	0.2	0.2
0.592	6.5616	6.6503	6.6378	1.4	1.4	0.9	0.9	0.2	0.2
0.593	6.5383	6.6271	6.5904	1.4	1.4	0.9	0.9	0.2	0.2
0.594	6.5195	6.6083	6.5515	1.4	1.4	0.9	0.9	0.2	0.2
0.595	6.5052	6.5939	6.5211	1.4	1.4	0.9	0.9	0.2	0.2
0.596	6.4889	6.5776	6.4892	1.4	1.4	0.9	0.9	0.2	0.2
0.597	6.4735	6.5622	6.4604	1.4	1.4	0.9	0.9	0.2	0.2
0.598	6.4583	6.5471	6.4332	1.4	1.4	0.9	0.9	0.2	0.2
0.599	6.4428	6.5317	6.4061	1.4	1.4	0.9	0.9	0.2	0.2
0.6	6.427	6.5157	6.3785	1.4	1.4	0.9	0.9	0.2	0.2
0.601	6.4092	6.4975	6.3465	1.4	1.4	0.9	0.9	0.2	0.2
0.602	6.3887	6.4767	6.3084	1.4	1.4	0.9	0.9	0.2	0.2
0.603	6.3711	6.4591	6.2724	1.4	1.4	0.9	0.9	0.2	0.2
0.604	6.3539	6.4416	6.2366	1.4	1.4	0.9	0.9	0.2	0.2
0.605	6.3356	6.4228	6.1982	1.4	1.4	0.9	0.9	0.2	0.2
0.606	6.3149	6.4018	6.1546	1.4	1.4	0.9	0.9	0.2	0.2
0.607	6.2911	6.3775	6.1045	1.4	1.4	0.9	0.9	0.2	0.2
0.608	6.2658	6.3519	6.0498	1.4	1.4	0.9	0.9	0.2	0.2
0.609	6.24	6.3258	5.9923	1.4	1.4	0.9	0.9	0.2	0.2
0.61	6.2136	6.2988	5.9324	1.4	1.4	0.9	0.9	0.2	0.2
0.611	6.1818	6.2667	5.8642	1.4	1.4	0.9	0.9	0.2	0.2
0.612	6.1476	6.2319	5.7903	1.4	1.4	0.9	0.9	0.2	0.2
0.613	6.1144	6.198	5.7157	1.4	1.4	0.9	0.9	0.2	0.2
0.614	6.08	6.1629	5.6383	1.4	1.4	0.9	0.9	0.2	0.2
0.615	6.0442	6.1265	5.5569	1.4	1.4	0.9	0.9	0.2	0.2
0.616	6.0085	6.0899	5.4752	1.4	1.4	0.9	0.9	0.2	0.2
0.617	5.9744	6.0546	5.397	1.4	1.4	0.9	0.9	0.2	0.2
0.618	5.9408	6.0201	5.3219	1.4	1.4	0.9	0.9	0.2	0.2
0.619	5.9093	5.988	5.2504	1.4	1.4	0.9	0.9	0.2	0.2
0.62	5.8798	5.9582	5.1826	1.4	1.4	0.9	0.9	0.2	0.2
0.621	5.8494	5.9278	5.1155	1.4	1.4	0.9	0.9	0.2	0.2
0.622	5.8224	5.9013	5.0553	1.4	1.4	0.9	0.9	0.2	0.2
0.623	5.8017	5.8808	5.0067	1.4	1.4	0.9	0.9	0.2	0.2
0.624	5.7854	5.864	4.9664	1.4	1.4	0.9	0.9	0.2	0.2
0.625	5.7701	5.8483	4.9304	1.4	1.4	0.9	0.9	0.2	0.2
0.626	5.7593	5.8369	4.9022	1.4	1.4	0.9	0.9	0.2	0.2
0.627	5.7509	5.8279	4.879	1.4	1.4	0.9	0.9	0.2	0.2
0.628	5.7422	5.8187	4.8582	1.4	1.4	0.9	0.9	0.2	0.2
0.629	5.7352	5.8114	4.8418	1.4	1.4	0.9	0.9	0.2	0.2
0.63	5.7328	5.8086	4.8346	1.4	1.4	0.9	0.9	0.2	0.2
0.631	5.7327	5.8081	4.8325	1.4	1.4	0.9	0.9	0.2	0.2
0.632	5.7311	5.8065	4.8287	1.4	1.4	0.9	0.9	0.2	0.2
0.633	5.7261	5.8021	4.8193	1.4	1.4	0.9	0.9	0.2	0.2
0.634	5.7185	5.7947	4.8044	1.4	1.4	0.9	0.9	0.2	0.2
0.635	5.7061	5.7826	4.7812	1.4	1.4	0.9	0.9	0.2	0.2
0.636	5.6923	5.7689	4.7532	1.4	1.4	0.9	0.9	0.2	0.2
0.637	5.6762	5.7527	4.7185	1.4	1.4	0.9	0.9	0.2	0.2
0.638	5.6562	5.732	4.6741	1.4	1.4	0.9	0.9	0.2	0.2
0.639	5.6324	5.7075	4.6204	1.4	1.4	0.9	0.9	0.2	0.2
0.64	5.6012	5.6758	4.553	1.4	1.4	0.9	0.9	0.2	0.2
0.641	5.5662	5.64	4.4762	1.4	1.4	0.9	0.9	0.2	0.2
0.642	5.53	5.603	4.3945	1.4	1.4	0.9	0.9	0.2	0.2
0.643	5.4939	5.5658	4.3083	1.4	1.4	0.9	0.9	0.2	0.2
0.644	5.459	5.5299	4.2213	1.4	1.4	0.9	0.9	0.2	0.2
0.645	5.4222	5.492	4.1285	1.4	1.4	0.9	0.9	0.2	0.2
0.646	5.3824	5.451	4.0295	1.4	1.4	0.9	0.9	0.2	0.2
0.647	5.3426	5.4099	3.9308	1.4	1.4	0.9	0.9	0.2	0.2
0.648	5.3059	5.3713	3.8373	1.4	1.4	0.9	0.9	0.2	0.2
0.649	5.2723	5.3358	3.7489	1.4	1.4	0.9	0.9	0.2	0.2
0.65	5.2413	5.3031	3.6673	1.4	1.4	0.9	0.9	0.2	0.2
0.651	5.2123	5.2723	3.592	1.4	1.4	0.9	0.9	0.2	0.2
0.652	5.1863	5.2447	3.5243	1.4	1.4	0.9	0.9	0.2	0.2
0.653	5.1657	5.2225	3.4672	1.4	1.4	0.9	0.9	0.2	0.2
0.654	5.1454	5.201	3.413	1.4	1.4	0.9	0.9	0.2	0.2
0.655	5.1291	5.1835	3.3651	1.4	1.4	0.9	0.9	0.2	0.2
0.656	5.1176	5.1709	3.3241	1.4	1.4	0.9	0.9	0.2	0.2
0.657	5.1056	5.1582	3.2807	1.4	1.4	0.9	0.9	0.2	0.2
0.658	5.0925	5.1445	3.2343	1.4	1.4	0.9	0.9	0.2	0.2
0.659	5.0785	5.13	3.1837	1.4	1.4	0.9	0.9	0.2	0.2
0.66	5.0614	5.1119	3.1254	1.4	1.4	0.9	0.9	0.2	0.2
0.661	5.0428	5.0919	3.0621	1.4	1.4	0.9	0.9	0.2	0.2
0.662	5.022	5.069	2.9912	1.4	1.4	0.9	0.9	0.2	0.2
0.663	5	5.0449	2.9169	1.4	1.4	0.9	0.9	0.2	0.2
0.664	4.9766	5.0191	2.8392	1.4	1.4	0.9	0.9	0.2	0.2
0.665	4.9526	4.9924	2.7581	1.4	1.4	0.9	0.9	0.2	0.2
0.666	4.929	4.9654	2.675	1.4	1.4	0.9	0.9	0.2	0.2
0.667	4.9102	4.9433	2.5972	1.4	1.4	0.9	0.9	0.2	0.2
0.668	4.894	4.9239	2.5224	1.4	1.4	0.9	0.9	0.2	0.2
0.669	4.8828	4.9091	2.4545	1.4	1.4	0.9	0.9	0.2	0.2
0.67	4.8786	4.9014	2.3981	1.4	1.4	0.9	0.9	0.2	0.2
0.671	4.8774	4.8967	2.3465	1.4	1.4	0.9	0.9	0.2	0.2
0.672	4.88	4.8955	2.3002	1.4	1.4	0.9	0.9	0.2	0.2
0.673	4.8874	4.8994	2.2622	1.4	1.4	0.9	0.9	0.2	0.2
0.674	4.8964	4.9042	2.2271	1.4	1.4	0.9	0.9	0.2	0.2
0.675	4.9075	4.9103	2.1941	1.4	1.4	0.9	0.9	0.2	0.2
0.676	4.9251	4.9225	2.1705	1.4	1.4	0.9	0.9	0.2	0.2
0.677	4.9459	4.9383	2.1529	1.4	1.4	0.9	0.9	0.2	0.2
0.678	4.9678	4.9548	2.1356	1.4	1.4	0.9	0.9	0.2	0.2
0.679	4.9922	4.9734	2.1207	1.4	1.4	0.9	0.9	0.2	0.2
0.68	5.0194	4.9947	2.11	1.4	1.4	0.9	0.9	0.2	0.2
0.681	5.0522	5.0218	2.109	1.4	1.4	0.9	0.9	0.2	0.2
0.682	5.0898	5.0538	2.1174	1.4	1.4	0.9	0.9	0.2	0.2
0.683	5.1339	5.0925	2.1409	1.4	1.4	0.9	0.9	0.2	0.2
0.684	5.1848	5.139	2.1839	1.4	1.4	0.9	0.9	0.2	0.2
0.685	5.2412	5.1916	2.2464	1.4	1.4	0.9	0.9	0.2	0.2
0.686	5.3029	5.2507	2.33	1.4	1.4	0.9	0.9	0.2	0.2
0.687	5.372	5.3188	2.4428	1.4	1.4	0.9	0.9	0.2	0.2
0.688	5.4493	5.396	2.5877	1.4	1.4	0.9	0.9	0.2	0.2
0.689	5.535	5.4829	2.7676	1.4	1.4	0.9	0.9	0.2	0.2
0.69	5.6353	5.5862	2.9945	1.4	1.4	0.9	0.9	0.2	0.2
0.691	5.7496	5.7052	3.2687	1.4	1.4	0.9	0.9	0.2	0.2
0.692	5.8823	5.8437	3.5974	1.4	1.4	0.9	0.9	0.2	0.2
0.693	6.0383	6.0062	3.9864	1.4	1.4	0.9	0.9	0.2	0.2
0.694	6.2212	6.1964	4.4396	1.4	1.4	0.9	0.9	0.2	0.2
0.695	6.4342	6.4172	4.9588	1.4	1.4	0.9	0.9	0.2	0.2
0.696	6.679	6.6697	5.5428	1.4	1.4	0.9	0.9	0.2	0.2
0.697	6.9607	6.9592	6.1948	1.4	1.4	0.9	0.9	0.2	0.2
0.698	7.2797	7.2858	6.9096	1.4	1.4	0.9	0.9	0.2	0.2
0.699	7.6367	7.6502	7.6824	1.4	1.4	0.9	0.9	0.2	0.2
0.7	8.0296	8.0507	8.5035	1.4	1.4	0.9	0.9	0.2	0.2
0.701	8.4561	8.4844	9.3647	1.4	1.4	0.9	0.9	0.2	0.2
0.702	8.9116	8.9473	10.2553	1.4	1.4	0.9	0.9	0.2	0.2
0.703	9.3907	9.4341	11.1635	1.4	1.4	0.9	0.9	0.2	0.2
0.704	9.8917	9.9431	12.0837	1.4	1.4	0.9	0.9	0.2	0.2
0.705	10.4093	10.469	13.0066	1.4	1.4	0.9	0.9	0.2	0.2
0.706	10.9375	11.0058	13.9237	1.4	1.4	0.9	0.9	0.2	0.2
0.707	11.4737	11.5504	14.8301	1.4	1.4	0.9	0.9	0.2	0.2
0.708	12.0165	12.1013	15.7243	1.4	1.4	0.9	0.9	0.2	0.2
0.709	12.5618	12.6547	16.6035	1.4	1.4	0.9	0.9	0.2	0.2
0.71	13.1086	13.209	17.4662	1.4	1.4	0.9	0.9	0.2	0.2
0.711	13.6588	13.766	18.3147	1.4	1.4	0.9	0.9	0.2	0.2
0.712	14.211	14.3244	19.1491	1.4	1.4	0.9	0.9	0.2	0.2
0.713	14.7662	14.8853	19.9726	1.4	1.4	0.9	0.9	0.2	0.2
0.714	15.3236	15.4477	20.7839	1.4	1.4	0.9	0.9	0.2	0.2
0.715	15.8826	16.0114	21.584	1.4	1.4	0.9	0.9	0.2	0.2
0.716	16.4435	16.5768	22.3744	1.4	1.4	0.9	0.9	0.2	0.2
0.717	17.0059	17.1435	23.1547	1.4	1.4	0.9	0.9	0.2	0.2
0.718	17.5688	17.7104	23.9242	1.4	1.4	0.9	0.9	0.2	0.2
0.719	18.131	18.2765	24.6825	1.4	1.4	0.9	0.9	0.2	0.2
0.72	18.6916	18.8408	25.4295	1.4	1.4	0.9	0.9	0.2	0.2
0.721	19.2505	19.4031	26.1651	1.4	1.4	0.9	0.9	0.2	0.2
0.722	19.8069	19.9624	26.8892	1.4	1.4	0.9	0.9	0.2	0.2
0.723	20.3577	20.5162	27.5999	1.4	1.4	0.9	0.9	0.2	0.2
0.724	20.9022	21.0633	28.2948	1.4	1.4	0.9	0.9	0.2	0.2
0.725	21.4388	21.6019	28.9724	1.4	1.4	0.9	0.9	0.2	0.2
0.726	21.9659	22.1309	29.6319	1.4	1.4	0.9	0.9	0.2	0.2
0.727	22.4827	22.6494	30.2727	1.4	1.4	0.9	0.9	0.2	0.2
0.728	22.9869	23.1548	30.8921	1.4	1.4	0.9	0.9	0.2	0.2
0.729	23.4761	23.6451	31.4889	1.4	1.4	0.9	0.9	0.2	0.2
0.73	23.9504	24.1199	32.0626	1.4	1.4	0.9	0.9	0.2	0.2
0.731	24.4092	24.5788	32.6129	1.4	1.4	0.9	0.9	0.2	0.2
0.732	24.8518	25.0216	33.1407	1.4	1.4	0.9	0.9	0.2	0.2
0.733	25.2769	25.4468	33.6451	1.4	1.4	0.9	0.9	0.2	0.2
0.734	25.6838	25.8535	34.1245	1.4	1.4	0.9	0.9	0.2	0.2
