*Name: Leaf mid
Type: Leaf Spectrum
Particle Size: Solid
Wavelength Range: All

Origin: Remote Sensing Laboratories, University of Zurich

Description: abaxial reflectance, adaxial reflectance, and adaxial transmittance measured by ASD Integrating Sphere

Measurement: Hemispherical Conical Reflectance Factor HCRF

First Column:  X Wavelength (micrometers)
Second Column:  Y Reflectance (percent)
First X Value: 0.369
Last X Value: 2.493
Number of X Values: 2125
Additional Information:  None*

*Number of Lambda pertinent values : *  2125
*Lambda_min - Lambda_max : *  0.369 2.493
*Leaf parameters : Upper type of roughness [0/1 : cst/var] - Lower type of roughness* 0 0
*Lambda - Lower reflectance - Upper reflectance - Transmittance - Lower refraction index - Upper refracton index - Lower roughness [0;1] - Upper roughness - Lower roughness index [0.1;0.3] - Upper roughness index *
0.369	1.2384	1.2945	0.025904	1.4	1.4	0.9	0.9	0.2	0.2
0.37	1.4588	1.5161	0.07171	1.4	1.4	0.9	0.9	0.2	0.2
0.371	1.6874	1.7415	0.12183	1.4	1.4	0.9	0.9	0.2	0.2
0.372	1.9076	1.9628	0.17483	1.4	1.4	0.9	0.9	0.2	0.2
0.373	2.1224	2.1829	0.21526	1.4	1.4	0.9	0.9	0.2	0.2
0.374	2.3323	2.3996	0.23819	1.4	1.4	0.9	0.9	0.2	0.2
0.375	2.5341	2.5996	0.25126	1.4	1.4	0.9	0.9	0.2	0.2
0.376	2.7538	2.8195	0.28337	1.4	1.4	0.9	0.9	0.2	0.2
0.377	2.9762	3.0443	0.32255	1.4	1.4	0.9	0.9	0.2	0.2
0.378	3.1706	3.24	0.34163	1.4	1.4	0.9	0.9	0.2	0.2
0.379	3.371	3.4362	0.39014	1.4	1.4	0.9	0.9	0.2	0.2
0.38	3.5504	3.6141	0.42725	1.4	1.4	0.9	0.9	0.2	0.2
0.381	3.6966	3.7649	0.43494	1.4	1.4	0.9	0.9	0.2	0.2
0.382	3.8707	3.9353	0.49873	1.4	1.4	0.9	0.9	0.2	0.2
0.383	4.0219	4.0785	0.55828	1.4	1.4	0.9	0.9	0.2	0.2
0.384	4.1362	4.1829	0.5998	1.4	1.4	0.9	0.9	0.2	0.2
0.385	4.224	4.2616	0.6424	1.4	1.4	0.9	0.9	0.2	0.2
0.386	4.2881	4.315	0.67827	1.4	1.4	0.9	0.9	0.2	0.2
0.387	4.3322	4.3476	0.72192	1.4	1.4	0.9	0.9	0.2	0.2
0.388	4.3581	4.3621	0.78719	1.4	1.4	0.9	0.9	0.2	0.2
0.389	4.3315	4.3235	0.82307	1.4	1.4	0.9	0.9	0.2	0.2
0.39	4.3526	4.3558	0.87291	1.4	1.4	0.9	0.9	0.2	0.2
0.391	4.3776	4.3931	0.95172	1.4	1.4	0.9	0.9	0.2	0.2
0.392	4.4174	4.4347	0.91795	1.4	1.4	0.9	0.9	0.2	0.2
0.393	4.4728	4.4892	0.85986	1.4	1.4	0.9	0.9	0.2	0.2
0.394	4.5433	4.5615	0.85889	1.4	1.4	0.9	0.9	0.2	0.2
0.395	4.5812	4.5968	0.84519	1.4	1.4	0.9	0.9	0.2	0.2
0.396	4.5787	4.5887	0.80226	1.4	1.4	0.9	0.9	0.2	0.2
0.397	4.5576	4.558	0.74695	1.4	1.4	0.9	0.9	0.2	0.2
0.398	4.6086	4.5952	0.76825	1.4	1.4	0.9	0.9	0.2	0.2
0.399	4.6326	4.6175	0.77602	1.4	1.4	0.9	0.9	0.2	0.2
0.4	4.6381	4.6277	0.75686	1.4	1.4	0.9	0.9	0.2	0.2
0.401	4.6588	4.6527	0.72406	1.4	1.4	0.9	0.9	0.2	0.2
0.402	4.7109	4.7063	0.75549	1.4	1.4	0.9	0.9	0.2	0.2
0.403	4.7426	4.7394	0.76085	1.4	1.4	0.9	0.9	0.2	0.2
0.404	4.7426	4.7416	0.72534	1.4	1.4	0.9	0.9	0.2	0.2
0.405	4.7544	4.7532	0.75332	1.4	1.4	0.9	0.9	0.2	0.2
0.406	4.7506	4.7494	0.74588	1.4	1.4	0.9	0.9	0.2	0.2
0.407	4.7403	4.742	0.71826	1.4	1.4	0.9	0.9	0.2	0.2
0.408	4.7286	4.7395	0.69442	1.4	1.4	0.9	0.9	0.2	0.2
0.409	4.7265	4.7448	0.66687	1.4	1.4	0.9	0.9	0.2	0.2
0.41	4.728	4.7484	0.63528	1.4	1.4	0.9	0.9	0.2	0.2
0.411	4.7351	4.7537	0.61461	1.4	1.4	0.9	0.9	0.2	0.2
0.412	4.7597	4.7849	0.62398	1.4	1.4	0.9	0.9	0.2	0.2
0.413	4.7723	4.8029	0.62768	1.4	1.4	0.9	0.9	0.2	0.2
0.414	4.7737	4.8066	0.62573	1.4	1.4	0.9	0.9	0.2	0.2
0.415	4.7909	4.825	0.64466	1.4	1.4	0.9	0.9	0.2	0.2
0.416	4.7977	4.8377	0.63614	1.4	1.4	0.9	0.9	0.2	0.2
0.417	4.82	4.8624	0.64453	1.4	1.4	0.9	0.9	0.2	0.2
0.418	4.8765	4.9108	0.70284	1.4	1.4	0.9	0.9	0.2	0.2
0.419	4.8904	4.9216	0.71042	1.4	1.4	0.9	0.9	0.2	0.2
0.42	4.9016	4.933	0.7179	1.4	1.4	0.9	0.9	0.2	0.2
0.421	4.9271	4.9599	0.74314	1.4	1.4	0.9	0.9	0.2	0.2
0.422	4.9596	4.9916	0.76743	1.4	1.4	0.9	0.9	0.2	0.2
0.423	4.9948	5.0273	0.80154	1.4	1.4	0.9	0.9	0.2	0.2
0.424	5.0238	5.058	0.82885	1.4	1.4	0.9	0.9	0.2	0.2
0.425	5.0353	5.0711	0.82302	1.4	1.4	0.9	0.9	0.2	0.2
0.426	5.0516	5.0888	0.82431	1.4	1.4	0.9	0.9	0.2	0.2
0.427	5.0734	5.1103	0.84253	1.4	1.4	0.9	0.9	0.2	0.2
0.428	5.0981	5.1319	0.87728	1.4	1.4	0.9	0.9	0.2	0.2
0.429	5.1161	5.1477	0.90027	1.4	1.4	0.9	0.9	0.2	0.2
0.43	5.1292	5.1591	0.91413	1.4	1.4	0.9	0.9	0.2	0.2
0.431	5.1423	5.1713	0.92716	1.4	1.4	0.9	0.9	0.2	0.2
0.432	5.1636	5.1927	0.95313	1.4	1.4	0.9	0.9	0.2	0.2
0.433	5.1702	5.1996	0.96449	1.4	1.4	0.9	0.9	0.2	0.2
0.434	5.1729	5.2033	0.97415	1.4	1.4	0.9	0.9	0.2	0.2
0.435	5.186	5.2177	0.99815	1.4	1.4	0.9	0.9	0.2	0.2
0.436	5.198	5.2304	1.0183	1.4	1.4	0.9	0.9	0.2	0.2
0.437	5.2153	5.2479	1.0393	1.4	1.4	0.9	0.9	0.2	0.2
0.438	5.2368	5.2694	1.0621	1.4	1.4	0.9	0.9	0.2	0.2
0.439	5.2453	5.2775	1.0786	1.4	1.4	0.9	0.9	0.2	0.2
0.44	5.2504	5.2819	1.0969	1.4	1.4	0.9	0.9	0.2	0.2
0.441	5.2537	5.2847	1.1143	1.4	1.4	0.9	0.9	0.2	0.2
0.442	5.2544	5.2852	1.1222	1.4	1.4	0.9	0.9	0.2	0.2
0.443	5.2678	5.2986	1.1494	1.4	1.4	0.9	0.9	0.2	0.2
0.444	5.2832	5.3146	1.1805	1.4	1.4	0.9	0.9	0.2	0.2
0.445	5.2903	5.3228	1.2002	1.4	1.4	0.9	0.9	0.2	0.2
0.446	5.2974	5.3298	1.2157	1.4	1.4	0.9	0.9	0.2	0.2
0.447	5.3063	5.339	1.2375	1.4	1.4	0.9	0.9	0.2	0.2
0.448	5.3154	5.3496	1.264	1.4	1.4	0.9	0.9	0.2	0.2
0.449	5.3199	5.3554	1.2788	1.4	1.4	0.9	0.9	0.2	0.2
0.45	5.285	5.3105	1.2176	1.4	1.4	0.9	0.9	0.2	0.2
0.451	5.2935	5.3197	1.2393	1.4	1.4	0.9	0.9	0.2	0.2
0.452	5.32	5.349	1.2898	1.4	1.4	0.9	0.9	0.2	0.2
0.453	5.3547	5.387	1.3494	1.4	1.4	0.9	0.9	0.2	0.2
0.454	5.3763	5.4122	1.3798	1.4	1.4	0.9	0.9	0.2	0.2
0.455	5.3791	5.4191	1.3829	1.4	1.4	0.9	0.9	0.2	0.2
0.456	5.3774	5.4225	1.3881	1.4	1.4	0.9	0.9	0.2	0.2
0.457	5.3896	5.4368	1.4162	1.4	1.4	0.9	0.9	0.2	0.2
0.458	5.3913	5.4396	1.4229	1.4	1.4	0.9	0.9	0.2	0.2
0.459	5.3883	5.436	1.4197	1.4	1.4	0.9	0.9	0.2	0.2
0.46	5.3836	5.431	1.4166	1.4	1.4	0.9	0.9	0.2	0.2
0.461	5.3784	5.4262	1.4135	1.4	1.4	0.9	0.9	0.2	0.2
0.462	5.3744	5.4185	1.4095	1.4	1.4	0.9	0.9	0.2	0.2
0.463	5.3711	5.412	1.4092	1.4	1.4	0.9	0.9	0.2	0.2
0.464	5.3627	5.4044	1.4059	1.4	1.4	0.9	0.9	0.2	0.2
0.465	5.3586	5.4012	1.4168	1.4	1.4	0.9	0.9	0.2	0.2
0.466	5.36	5.4011	1.4387	1.4	1.4	0.9	0.9	0.2	0.2
0.467	5.3749	5.4143	1.4677	1.4	1.4	0.9	0.9	0.2	0.2
0.468	5.3875	5.4267	1.4852	1.4	1.4	0.9	0.9	0.2	0.2
0.469	5.3958	5.436	1.498	1.4	1.4	0.9	0.9	0.2	0.2
0.47	5.4044	5.4441	1.5054	1.4	1.4	0.9	0.9	0.2	0.2
0.471	5.4241	5.4619	1.5247	1.4	1.4	0.9	0.9	0.2	0.2
0.472	5.4376	5.4763	1.538	1.4	1.4	0.9	0.9	0.2	0.2
0.473	5.4469	5.488	1.5502	1.4	1.4	0.9	0.9	0.2	0.2
0.474	5.4482	5.4894	1.5554	1.4	1.4	0.9	0.9	0.2	0.2
0.475	5.4537	5.492	1.5625	1.4	1.4	0.9	0.9	0.2	0.2
0.476	5.4711	5.5089	1.5848	1.4	1.4	0.9	0.9	0.2	0.2
0.477	5.4823	5.523	1.6015	1.4	1.4	0.9	0.9	0.2	0.2
0.478	5.4789	5.523	1.6038	1.4	1.4	0.9	0.9	0.2	0.2
0.479	5.4668	5.5109	1.6015	1.4	1.4	0.9	0.9	0.2	0.2
0.48	5.4592	5.5033	1.6057	1.4	1.4	0.9	0.9	0.2	0.2
0.481	5.4584	5.5038	1.6142	1.4	1.4	0.9	0.9	0.2	0.2
0.482	5.452	5.4983	1.6182	1.4	1.4	0.9	0.9	0.2	0.2
0.483	5.4443	5.4901	1.6202	1.4	1.4	0.9	0.9	0.2	0.2
0.484	5.4448	5.488	1.624	1.4	1.4	0.9	0.9	0.2	0.2
0.485	5.4521	5.4936	1.6378	1.4	1.4	0.9	0.9	0.2	0.2
0.486	5.4552	5.4961	1.648	1.4	1.4	0.9	0.9	0.2	0.2
0.487	5.4612	5.4997	1.6626	1.4	1.4	0.9	0.9	0.2	0.2
0.488	5.4643	5.4987	1.67	1.4	1.4	0.9	0.9	0.2	0.2
0.489	5.4752	5.5082	1.6827	1.4	1.4	0.9	0.9	0.2	0.2
0.49	5.5071	5.5417	1.7236	1.4	1.4	0.9	0.9	0.2	0.2
0.491	5.5263	5.5625	1.745	1.4	1.4	0.9	0.9	0.2	0.2
0.492	5.5331	5.5695	1.7505	1.4	1.4	0.9	0.9	0.2	0.2
0.493	5.5393	5.5768	1.7613	1.4	1.4	0.9	0.9	0.2	0.2
0.494	5.5511	5.5918	1.7819	1.4	1.4	0.9	0.9	0.2	0.2
0.495	5.5654	5.6076	1.809	1.4	1.4	0.9	0.9	0.2	0.2
0.496	5.5874	5.6282	1.8452	1.4	1.4	0.9	0.9	0.2	0.2
0.497	5.6118	5.6507	1.8887	1.4	1.4	0.9	0.9	0.2	0.2
0.498	5.6398	5.6764	1.9359	1.4	1.4	0.9	0.9	0.2	0.2
0.499	5.6667	5.7016	1.9818	1.4	1.4	0.9	0.9	0.2	0.2
0.5	5.6957	5.7295	2.0307	1.4	1.4	0.9	0.9	0.2	0.2
0.501	5.7302	5.7628	2.0923	1.4	1.4	0.9	0.9	0.2	0.2
0.502	5.7615	5.7952	2.1561	1.4	1.4	0.9	0.9	0.2	0.2
0.503	5.801	5.8371	2.2341	1.4	1.4	0.9	0.9	0.2	0.2
0.504	5.8616	5.8998	2.3373	1.4	1.4	0.9	0.9	0.2	0.2
0.505	5.92	5.9601	2.4306	1.4	1.4	0.9	0.9	0.2	0.2
0.506	5.9733	6.0166	2.5237	1.4	1.4	0.9	0.9	0.2	0.2
0.507	6.0331	6.0806	2.6321	1.4	1.4	0.9	0.9	0.2	0.2
0.508	6.0995	6.1505	2.7489	1.4	1.4	0.9	0.9	0.2	0.2
0.509	6.1763	6.2298	2.878	1.4	1.4	0.9	0.9	0.2	0.2
0.51	6.2561	6.3113	3.0147	1.4	1.4	0.9	0.9	0.2	0.2
0.511	6.3351	6.3925	3.1592	1.4	1.4	0.9	0.9	0.2	0.2
0.512	6.4205	6.4796	3.3144	1.4	1.4	0.9	0.9	0.2	0.2
0.513	6.5205	6.5806	3.485	1.4	1.4	0.9	0.9	0.2	0.2
0.514	6.6261	6.6865	3.6639	1.4	1.4	0.9	0.9	0.2	0.2
0.515	6.7288	6.7897	3.8472	1.4	1.4	0.9	0.9	0.2	0.2
0.516	6.8368	6.898	4.046	1.4	1.4	0.9	0.9	0.2	0.2
0.517	6.9649	7.0261	4.2709	1.4	1.4	0.9	0.9	0.2	0.2
0.518	7.1083	7.1696	4.5122	1.4	1.4	0.9	0.9	0.2	0.2
0.519	7.2506	7.3131	4.755	1.4	1.4	0.9	0.9	0.2	0.2
0.52	7.3956	7.4604	5.0093	1.4	1.4	0.9	0.9	0.2	0.2
0.521	7.5508	7.6178	5.2759	1.4	1.4	0.9	0.9	0.2	0.2
0.522	7.713	7.7816	5.55	1.4	1.4	0.9	0.9	0.2	0.2
0.523	7.8768	7.9472	5.8237	1.4	1.4	0.9	0.9	0.2	0.2
0.524	8.0368	8.1082	6.0964	1.4	1.4	0.9	0.9	0.2	0.2
0.525	8.1976	8.2693	6.3724	1.4	1.4	0.9	0.9	0.2	0.2
0.526	8.3595	8.4306	6.6423	1.4	1.4	0.9	0.9	0.2	0.2
0.527	8.5226	8.5928	6.9039	1.4	1.4	0.9	0.9	0.2	0.2
0.528	8.6764	8.7453	7.1498	1.4	1.4	0.9	0.9	0.2	0.2
0.529	8.8231	8.8916	7.3883	1.4	1.4	0.9	0.9	0.2	0.2
0.53	8.9673	9.0354	7.6219	1.4	1.4	0.9	0.9	0.2	0.2
0.531	9.1092	9.1774	7.8469	1.4	1.4	0.9	0.9	0.2	0.2
0.532	9.2397	9.3085	8.0539	1.4	1.4	0.9	0.9	0.2	0.2
0.533	9.3588	9.4277	8.2417	1.4	1.4	0.9	0.9	0.2	0.2
0.534	9.4742	9.5435	8.4229	1.4	1.4	0.9	0.9	0.2	0.2
0.535	9.579	9.6493	8.588	1.4	1.4	0.9	0.9	0.2	0.2
0.536	9.6671	9.738	8.7312	1.4	1.4	0.9	0.9	0.2	0.2
0.537	9.7425	9.8147	8.8571	1.4	1.4	0.9	0.9	0.2	0.2
0.538	9.809	9.8826	8.9736	1.4	1.4	0.9	0.9	0.2	0.2
0.539	9.8636	9.9386	9.0743	1.4	1.4	0.9	0.9	0.2	0.2
0.54	9.9077	9.9835	9.1557	1.4	1.4	0.9	0.9	0.2	0.2
0.541	9.9451	10.0214	9.2273	1.4	1.4	0.9	0.9	0.2	0.2
0.542	9.9815	10.0591	9.2984	1.4	1.4	0.9	0.9	0.2	0.2
0.543	10.0136	10.0929	9.3651	1.4	1.4	0.9	0.9	0.2	0.2
0.544	10.0453	10.1257	9.4273	1.4	1.4	0.9	0.9	0.2	0.2
0.545	10.0813	10.1626	9.4935	1.4	1.4	0.9	0.9	0.2	0.2
0.546	10.116	10.1983	9.5593	1.4	1.4	0.9	0.9	0.2	0.2
0.547	10.1526	10.2355	9.6249	1.4	1.4	0.9	0.9	0.2	0.2
0.548	10.189	10.2727	9.6876	1.4	1.4	0.9	0.9	0.2	0.2
0.549	10.2249	10.3104	9.7516	1.4	1.4	0.9	0.9	0.2	0.2
0.55	10.2566	10.3431	9.8119	1.4	1.4	0.9	0.9	0.2	0.2
0.551	10.2864	10.3745	9.869	1.4	1.4	0.9	0.9	0.2	0.2
0.552	10.3102	10.4007	9.9186	1.4	1.4	0.9	0.9	0.2	0.2
0.553	10.325	10.4174	9.9542	1.4	1.4	0.9	0.9	0.2	0.2
0.554	10.3333	10.4268	9.9794	1.4	1.4	0.9	0.9	0.2	0.2
0.555	10.3363	10.4318	9.9988	1.4	1.4	0.9	0.9	0.2	0.2
0.556	10.3317	10.4294	10.0076	1.4	1.4	0.9	0.9	0.2	0.2
0.557	10.3142	10.4137	9.9989	1.4	1.4	0.9	0.9	0.2	0.2
0.558	10.2891	10.3902	9.9805	1.4	1.4	0.9	0.9	0.2	0.2
0.559	10.2549	10.3563	9.9501	1.4	1.4	0.9	0.9	0.2	0.2
0.56	10.2067	10.308	9.9003	1.4	1.4	0.9	0.9	0.2	0.2
0.561	10.1515	10.2524	9.8358	1.4	1.4	0.9	0.9	0.2	0.2
0.562	10.0916	10.1923	9.7611	1.4	1.4	0.9	0.9	0.2	0.2
0.563	10.0269	10.1282	9.6803	1.4	1.4	0.9	0.9	0.2	0.2
0.564	9.9542	10.0557	9.5874	1.4	1.4	0.9	0.9	0.2	0.2
0.565	9.8705	9.972	9.4783	1.4	1.4	0.9	0.9	0.2	0.2
0.566	9.7805	9.8819	9.3569	1.4	1.4	0.9	0.9	0.2	0.2
0.567	9.6858	9.7866	9.2232	1.4	1.4	0.9	0.9	0.2	0.2
0.568	9.5839	9.6846	9.0789	1.4	1.4	0.9	0.9	0.2	0.2
0.569	9.476	9.5777	8.9284	1.4	1.4	0.9	0.9	0.2	0.2
0.57	9.3631	9.4653	8.7697	1.4	1.4	0.9	0.9	0.2	0.2
0.571	9.2489	9.3511	8.6081	1.4	1.4	0.9	0.9	0.2	0.2
0.572	9.1312	9.2336	8.4412	1.4	1.4	0.9	0.9	0.2	0.2
0.573	9.0126	9.1142	8.2698	1.4	1.4	0.9	0.9	0.2	0.2
0.574	8.8983	8.9989	8.0991	1.4	1.4	0.9	0.9	0.2	0.2
0.575	8.7901	8.8896	7.9333	1.4	1.4	0.9	0.9	0.2	0.2
0.576	8.689	8.7877	7.7785	1.4	1.4	0.9	0.9	0.2	0.2
0.577	8.594	8.6922	7.6345	1.4	1.4	0.9	0.9	0.2	0.2
0.578	8.502	8.5997	7.4936	1.4	1.4	0.9	0.9	0.2	0.2
0.579	8.4122	8.5087	7.3539	1.4	1.4	0.9	0.9	0.2	0.2
0.58	8.3304	8.4257	7.2235	1.4	1.4	0.9	0.9	0.2	0.2
0.581	8.2578	8.352	7.1069	1.4	1.4	0.9	0.9	0.2	0.2
0.582	8.1843	8.2778	6.9922	1.4	1.4	0.9	0.9	0.2	0.2
0.583	8.1137	8.2067	6.8835	1.4	1.4	0.9	0.9	0.2	0.2
0.584	8.0495	8.1417	6.7842	1.4	1.4	0.9	0.9	0.2	0.2
0.585	7.9909	8.0826	6.6926	1.4	1.4	0.9	0.9	0.2	0.2
0.586	7.9346	8.0261	6.6046	1.4	1.4	0.9	0.9	0.2	0.2
0.587	7.8833	7.9738	6.5232	1.4	1.4	0.9	0.9	0.2	0.2
0.588	7.8325	7.9212	6.4433	1.4	1.4	0.9	0.9	0.2	0.2
0.589	7.788	7.8752	6.3724	1.4	1.4	0.9	0.9	0.2	0.2
0.59	7.7519	7.8384	6.3143	1.4	1.4	0.9	0.9	0.2	0.2
0.591	7.72	7.8063	6.2644	1.4	1.4	0.9	0.9	0.2	0.2
0.592	7.6896	7.7756	6.2158	1.4	1.4	0.9	0.9	0.2	0.2
0.593	7.6622	7.7479	6.1721	1.4	1.4	0.9	0.9	0.2	0.2
0.594	7.6405	7.7257	6.1372	1.4	1.4	0.9	0.9	0.2	0.2
0.595	7.6241	7.7092	6.1108	1.4	1.4	0.9	0.9	0.2	0.2
0.596	7.6043	7.6896	6.0814	1.4	1.4	0.9	0.9	0.2	0.2
0.597	7.5856	7.6713	6.0556	1.4	1.4	0.9	0.9	0.2	0.2
0.598	7.5675	7.6533	6.0318	1.4	1.4	0.9	0.9	0.2	0.2
0.599	7.5487	7.6349	6.0084	1.4	1.4	0.9	0.9	0.2	0.2
0.6	7.5288	7.6149	5.9842	1.4	1.4	0.9	0.9	0.2	0.2
0.601	7.5064	7.592	5.9547	1.4	1.4	0.9	0.9	0.2	0.2
0.602	7.481	7.5661	5.919	1.4	1.4	0.9	0.9	0.2	0.2
0.603	7.46	7.5451	5.8859	1.4	1.4	0.9	0.9	0.2	0.2
0.604	7.4395	7.5243	5.8537	1.4	1.4	0.9	0.9	0.2	0.2
0.605	7.4173	7.5015	5.8197	1.4	1.4	0.9	0.9	0.2	0.2
0.606	7.3928	7.4767	5.7807	1.4	1.4	0.9	0.9	0.2	0.2
0.607	7.3647	7.448	5.7357	1.4	1.4	0.9	0.9	0.2	0.2
0.608	7.3354	7.4185	5.6866	1.4	1.4	0.9	0.9	0.2	0.2
0.609	7.3059	7.3894	5.6353	1.4	1.4	0.9	0.9	0.2	0.2
0.61	7.2761	7.3597	5.5821	1.4	1.4	0.9	0.9	0.2	0.2
0.611	7.2392	7.323	5.5207	1.4	1.4	0.9	0.9	0.2	0.2
0.612	7.1992	7.2826	5.4531	1.4	1.4	0.9	0.9	0.2	0.2
0.613	7.1611	7.2437	5.3848	1.4	1.4	0.9	0.9	0.2	0.2
0.614	7.1211	7.203	5.314	1.4	1.4	0.9	0.9	0.2	0.2
0.615	7.0798	7.1609	5.2383	1.4	1.4	0.9	0.9	0.2	0.2
0.616	7.0385	7.1185	5.1616	1.4	1.4	0.9	0.9	0.2	0.2
0.617	6.9984	7.0766	5.0889	1.4	1.4	0.9	0.9	0.2	0.2
0.618	6.9581	7.0347	5.0193	1.4	1.4	0.9	0.9	0.2	0.2
0.619	6.9203	6.9961	4.9532	1.4	1.4	0.9	0.9	0.2	0.2
0.62	6.8849	6.9603	4.8903	1.4	1.4	0.9	0.9	0.2	0.2
0.621	6.8476	6.9232	4.827	1.4	1.4	0.9	0.9	0.2	0.2
0.622	6.8145	6.8914	4.7706	1.4	1.4	0.9	0.9	0.2	0.2
0.623	6.7898	6.8676	4.7264	1.4	1.4	0.9	0.9	0.2	0.2
0.624	6.7705	6.8482	4.6904	1.4	1.4	0.9	0.9	0.2	0.2
0.625	6.7524	6.8297	4.6581	1.4	1.4	0.9	0.9	0.2	0.2
0.626	6.7406	6.8172	4.6333	1.4	1.4	0.9	0.9	0.2	0.2
0.627	6.7317	6.8073	4.613	1.4	1.4	0.9	0.9	0.2	0.2
0.628	6.7215	6.7967	4.5949	1.4	1.4	0.9	0.9	0.2	0.2
0.629	6.7132	6.7881	4.5804	1.4	1.4	0.9	0.9	0.2	0.2
0.63	6.7106	6.785	4.5758	1.4	1.4	0.9	0.9	0.2	0.2
0.631	6.7107	6.7844	4.5768	1.4	1.4	0.9	0.9	0.2	0.2
0.632	6.7087	6.7822	4.5755	1.4	1.4	0.9	0.9	0.2	0.2
0.633	6.7022	6.7766	4.5681	1.4	1.4	0.9	0.9	0.2	0.2
0.634	6.6918	6.7668	4.5547	1.4	1.4	0.9	0.9	0.2	0.2
0.635	6.6754	6.751	4.5328	1.4	1.4	0.9	0.9	0.2	0.2
0.636	6.6584	6.7347	4.5074	1.4	1.4	0.9	0.9	0.2	0.2
0.637	6.6391	6.7154	4.476	1.4	1.4	0.9	0.9	0.2	0.2
0.638	6.6154	6.6909	4.4348	1.4	1.4	0.9	0.9	0.2	0.2
0.639	6.5878	6.6622	4.3851	1.4	1.4	0.9	0.9	0.2	0.2
0.64	6.5504	6.6241	4.3215	1.4	1.4	0.9	0.9	0.2	0.2
0.641	6.508	6.5809	4.2491	1.4	1.4	0.9	0.9	0.2	0.2
0.642	6.4649	6.5369	4.1728	1.4	1.4	0.9	0.9	0.2	0.2
0.643	6.4227	6.494	4.0923	1.4	1.4	0.9	0.9	0.2	0.2
0.644	6.3826	6.4531	4.0116	1.4	1.4	0.9	0.9	0.2	0.2
0.645	6.3404	6.4096	3.9246	1.4	1.4	0.9	0.9	0.2	0.2
0.646	6.2949	6.3627	3.8307	1.4	1.4	0.9	0.9	0.2	0.2
0.647	6.2489	6.3155	3.7375	1.4	1.4	0.9	0.9	0.2	0.2
0.648	6.2066	6.2712	3.6496	1.4	1.4	0.9	0.9	0.2	0.2
0.649	6.1688	6.2312	3.5672	1.4	1.4	0.9	0.9	0.2	0.2
0.65	6.1337	6.1941	3.4913	1.4	1.4	0.9	0.9	0.2	0.2
0.651	6.0996	6.158	3.421	1.4	1.4	0.9	0.9	0.2	0.2
0.652	6.0688	6.1254	3.3583	1.4	1.4	0.9	0.9	0.2	0.2
0.653	6.0447	6.0995	3.3067	1.4	1.4	0.9	0.9	0.2	0.2
0.654	6.0198	6.0737	3.2575	1.4	1.4	0.9	0.9	0.2	0.2
0.655	5.9999	6.053	3.2146	1.4	1.4	0.9	0.9	0.2	0.2
0.656	5.9867	6.0391	3.1787	1.4	1.4	0.9	0.9	0.2	0.2
0.657	5.9728	6.025	3.1394	1.4	1.4	0.9	0.9	0.2	0.2
0.658	5.9572	6.0093	3.0971	1.4	1.4	0.9	0.9	0.2	0.2
0.659	5.9407	5.993	3.0503	1.4	1.4	0.9	0.9	0.2	0.2
0.66	5.9206	5.9724	2.9956	1.4	1.4	0.9	0.9	0.2	0.2
0.661	5.8984	5.9492	2.9364	1.4	1.4	0.9	0.9	0.2	0.2
0.662	5.8738	5.9228	2.8696	1.4	1.4	0.9	0.9	0.2	0.2
0.663	5.8477	5.8951	2.8	1.4	1.4	0.9	0.9	0.2	0.2
0.664	5.8191	5.8644	2.7268	1.4	1.4	0.9	0.9	0.2	0.2
0.665	5.7898	5.8325	2.6494	1.4	1.4	0.9	0.9	0.2	0.2
0.666	5.7611	5.8005	2.57	1.4	1.4	0.9	0.9	0.2	0.2
0.667	5.739	5.7755	2.4964	1.4	1.4	0.9	0.9	0.2	0.2
0.668	5.7198	5.7541	2.4256	1.4	1.4	0.9	0.9	0.2	0.2
0.669	5.707	5.7384	2.3618	1.4	1.4	0.9	0.9	0.2	0.2
0.67	5.703	5.7317	2.3099	1.4	1.4	0.9	0.9	0.2	0.2
0.671	5.702	5.7281	2.2622	1.4	1.4	0.9	0.9	0.2	0.2
0.672	5.7051	5.7285	2.2193	1.4	1.4	0.9	0.9	0.2	0.2
0.673	5.7135	5.7349	2.1846	1.4	1.4	0.9	0.9	0.2	0.2
0.674	5.7227	5.7412	2.1519	1.4	1.4	0.9	0.9	0.2	0.2
0.675	5.7332	5.7477	2.1198	1.4	1.4	0.9	0.9	0.2	0.2
0.676	5.7515	5.7618	2.098	1.4	1.4	0.9	0.9	0.2	0.2
0.677	5.7727	5.7794	2.0824	1.4	1.4	0.9	0.9	0.2	0.2
0.678	5.7938	5.7963	2.0656	1.4	1.4	0.9	0.9	0.2	0.2
0.679	5.8173	5.8151	2.05	1.4	1.4	0.9	0.9	0.2	0.2
0.68	5.8437	5.8368	2.0383	1.4	1.4	0.9	0.9	0.2	0.2
0.681	5.8765	5.8655	2.0359	1.4	1.4	0.9	0.9	0.2	0.2
0.682	5.9151	5.8997	2.0421	1.4	1.4	0.9	0.9	0.2	0.2
0.683	5.9614	5.9418	2.0637	1.4	1.4	0.9	0.9	0.2	0.2
0.684	6.0161	5.9934	2.105	1.4	1.4	0.9	0.9	0.2	0.2
0.685	6.0778	6.0524	2.1653	1.4	1.4	0.9	0.9	0.2	0.2
0.686	6.1458	6.1186	2.246	1.4	1.4	0.9	0.9	0.2	0.2
0.687	6.2229	6.1954	2.355	1.4	1.4	0.9	0.9	0.2	0.2
0.688	6.3096	6.2824	2.4941	1.4	1.4	0.9	0.9	0.2	0.2
0.689	6.4058	6.3799	2.6661	1.4	1.4	0.9	0.9	0.2	0.2
0.69	6.5198	6.4968	2.8838	1.4	1.4	0.9	0.9	0.2	0.2
0.691	6.6497	6.6309	3.1458	1.4	1.4	0.9	0.9	0.2	0.2
0.692	6.8003	6.787	3.4591	1.4	1.4	0.9	0.9	0.2	0.2
0.693	6.978	6.9706	3.8295	1.4	1.4	0.9	0.9	0.2	0.2
0.694	7.1864	7.1857	4.2604	1.4	1.4	0.9	0.9	0.2	0.2
0.695	7.4293	7.4357	4.7536	1.4	1.4	0.9	0.9	0.2	0.2
0.696	7.7085	7.7219	5.3088	1.4	1.4	0.9	0.9	0.2	0.2
0.697	8.0301	8.0509	5.9306	1.4	1.4	0.9	0.9	0.2	0.2
0.698	8.3948	8.4226	6.6136	1.4	1.4	0.9	0.9	0.2	0.2
0.699	8.8032	8.8376	7.354	1.4	1.4	0.9	0.9	0.2	0.2
0.7	9.2527	9.2939	8.1421	1.4	1.4	0.9	0.9	0.2	0.2
0.701	9.741	9.7886	8.9705	1.4	1.4	0.9	0.9	0.2	0.2
0.702	10.2625	10.3169	9.829	1.4	1.4	0.9	0.9	0.2	0.2
0.703	10.8104	10.8719	10.7057	1.4	1.4	0.9	0.9	0.2	0.2
0.704	11.3837	11.4525	11.5957	1.4	1.4	0.9	0.9	0.2	0.2
0.705	11.9768	12.0531	12.49	1.4	1.4	0.9	0.9	0.2	0.2
0.706	12.5818	12.6661	13.3805	1.4	1.4	0.9	0.9	0.2	0.2
0.707	13.1961	13.2884	14.2621	1.4	1.4	0.9	0.9	0.2	0.2
0.708	13.8184	13.9181	15.1333	1.4	1.4	0.9	0.9	0.2	0.2
0.709	14.4438	14.551	15.9914	1.4	1.4	0.9	0.9	0.2	0.2
0.71	15.0716	15.1855	16.8354	1.4	1.4	0.9	0.9	0.2	0.2
0.711	15.7039	15.8239	17.6676	1.4	1.4	0.9	0.9	0.2	0.2
0.712	16.3394	16.4647	18.4877	1.4	1.4	0.9	0.9	0.2	0.2
0.713	16.9786	17.1089	19.2991	1.4	1.4	0.9	0.9	0.2	0.2
0.714	17.6206	17.7555	20.0999	1.4	1.4	0.9	0.9	0.2	0.2
0.715	18.2649	18.4039	20.8914	1.4	1.4	0.9	0.9	0.2	0.2
0.716	18.9118	19.0552	21.675	1.4	1.4	0.9	0.9	0.2	0.2
0.717	19.561	19.7086	22.4501	1.4	1.4	0.9	0.9	0.2	0.2
0.718	20.2115	20.3629	23.2154	1.4	1.4	0.9	0.9	0.2	0.2
0.719	20.8617	21.0171	23.971	1.4	1.4	0.9	0.9	0.2	0.2
0.72	21.5101	21.6696	24.717	1.4	1.4	0.9	0.9	0.2	0.2
0.721	22.1573	22.3204	25.453	1.4	1.4	0.9	0.9	0.2	0.2
0.722	22.8023	22.9686	26.1791	1.4	1.4	0.9	0.9	0.2	0.2
0.723	23.4413	23.6112	26.8929	1.4	1.4	0.9	0.9	0.2	0.2
0.724	24.0737	24.2467	27.5922	1.4	1.4	0.9	0.9	0.2	0.2
0.725	24.6973	24.8729	28.275	1.4	1.4	0.9	0.9	0.2	0.2
0.726	25.3103	25.4884	28.9407	1.4	1.4	0.9	0.9	0.2	0.2
0.727	25.9115	26.092	29.5884	1.4	1.4	0.9	0.9	0.2	0.2
0.728	26.4981	26.6806	30.2151	1.4	1.4	0.9	0.9	0.2	0.2
0.729	27.0674	27.2515	30.8195	1.4	1.4	0.9	0.9	0.2	0.2
0.73	27.6197	27.8049	31.4015	1.4	1.4	0.9	0.9	0.2	0.2
0.731	28.1543	28.3399	31.9607	1.4	1.4	0.9	0.9	0.2	0.2
0.732	28.6692	28.8555	32.4972	1.4	1.4	0.9	0.9	0.2	0.2
0.733	29.1636	29.3507	33.0105	1.4	1.4	0.9	0.9	0.2	0.2
0.734	29.6369	29.8245	33.4992	1.4	1.4	0.9	0.9	0.2	0.2
