*Name: Maple top
Type: Leaf Spectrum
Particle Size: Solid
Wavelength Range: All

Origin: Remote Sensing Laboratories, University of Zurich

Description: abaxial reflectance, adaxial reflectance, and adaxial transmittance measured by ASD Integrating Sphere

Measurement: Hemispherical Conical Reflectance Factor HCRF

First Column:  X Wavelength (micrometers)
Second Column:  Y Reflectance (percent)
First X Value: 0.369
Last X Value: 2.493
Number of X Values: 2125
Additional Information:  None*

*Number of Lambda pertinent values : *  2125
*Lambda_min - Lambda_max : *  0.369 2.493
*Leaf parameters : Upper type of roughness [0/1 : cst/var] - Lower type of roughness* 0 0
*Lambda - Lower reflectance - Upper reflectance - Transmittance - Lower refraction index - Upper refracton index - Lower roughness [0;1] - Upper roughness - Lower roughness index [0.1;0.3] - Upper roughness index *
0.369	1.9288	1.976	0.18484	1.4	1.4	0.9	0.9	0.2	0.2
0.37	2.2134	2.264	0.19871	1.4	1.4	0.9	0.9	0.2	0.2
0.371	2.4925	2.5517	0.21573	1.4	1.4	0.9	0.9	0.2	0.2
0.372	2.7733	2.8373	0.23017	1.4	1.4	0.9	0.9	0.2	0.2
0.373	3.0548	3.1201	0.24896	1.4	1.4	0.9	0.9	0.2	0.2
0.374	3.3314	3.3952	0.26995	1.4	1.4	0.9	0.9	0.2	0.2
0.375	3.5859	3.6477	0.27181	1.4	1.4	0.9	0.9	0.2	0.2
0.376	3.8454	3.9055	0.29643	1.4	1.4	0.9	0.9	0.2	0.2
0.377	4.0954	4.1533	0.32922	1.4	1.4	0.9	0.9	0.2	0.2
0.378	4.3058	4.3591	0.33417	1.4	1.4	0.9	0.9	0.2	0.2
0.379	4.5163	4.5651	0.3602	1.4	1.4	0.9	0.9	0.2	0.2
0.38	4.7018	4.7443	0.37911	1.4	1.4	0.9	0.9	0.2	0.2
0.381	4.8467	4.8796	0.37561	1.4	1.4	0.9	0.9	0.2	0.2
0.382	4.9827	5.0037	0.39551	1.4	1.4	0.9	0.9	0.2	0.2
0.383	5.0854	5.0961	0.41233	1.4	1.4	0.9	0.9	0.2	0.2
0.384	5.1466	5.1484	0.41831	1.4	1.4	0.9	0.9	0.2	0.2
0.385	5.1682	5.161	0.41796	1.4	1.4	0.9	0.9	0.2	0.2
0.386	5.1504	5.1316	0.4134	1.4	1.4	0.9	0.9	0.2	0.2
0.387	5.0998	5.0684	0.41802	1.4	1.4	0.9	0.9	0.2	0.2
0.388	5.0213	4.9782	0.44327	1.4	1.4	0.9	0.9	0.2	0.2
0.389	4.8821	4.8248	0.44279	1.4	1.4	0.9	0.9	0.2	0.2
0.39	4.9073	4.842	0.45933	1.4	1.4	0.9	0.9	0.2	0.2
0.391	4.908	4.8393	0.43747	1.4	1.4	0.9	0.9	0.2	0.2
0.392	4.9215	4.851	0.44197	1.4	1.4	0.9	0.9	0.2	0.2
0.393	4.9468	4.8703	0.459	1.4	1.4	0.9	0.9	0.2	0.2
0.394	4.9758	4.8874	0.47173	1.4	1.4	0.9	0.9	0.2	0.2
0.395	4.9664	4.883	0.43673	1.4	1.4	0.9	0.9	0.2	0.2
0.396	4.9576	4.8734	0.39738	1.4	1.4	0.9	0.9	0.2	0.2
0.397	4.96	4.8683	0.36717	1.4	1.4	0.9	0.9	0.2	0.2
0.398	4.9858	4.8958	0.37233	1.4	1.4	0.9	0.9	0.2	0.2
0.399	5.0056	4.9141	0.37145	1.4	1.4	0.9	0.9	0.2	0.2
0.4	5.0184	4.9233	0.36012	1.4	1.4	0.9	0.9	0.2	0.2
0.401	5.0334	4.935	0.34516	1.4	1.4	0.9	0.9	0.2	0.2
0.402	5.0628	4.9597	0.34924	1.4	1.4	0.9	0.9	0.2	0.2
0.403	5.0759	4.9702	0.32469	1.4	1.4	0.9	0.9	0.2	0.2
0.404	5.071	4.9661	0.26839	1.4	1.4	0.9	0.9	0.2	0.2
0.405	5.0892	4.985	0.24642	1.4	1.4	0.9	0.9	0.2	0.2
0.406	5.0962	4.9964	0.22231	1.4	1.4	0.9	0.9	0.2	0.2
0.407	5.104	5.007	0.20002	1.4	1.4	0.9	0.9	0.2	0.2
0.408	5.127	5.0251	0.18358	1.4	1.4	0.9	0.9	0.2	0.2
0.409	5.1537	5.0472	0.17506	1.4	1.4	0.9	0.9	0.2	0.2
0.41	5.1763	5.0672	0.16175	1.4	1.4	0.9	0.9	0.2	0.2
0.411	5.1973	5.0878	0.14582	1.4	1.4	0.9	0.9	0.2	0.2
0.412	5.2405	5.1308	0.16151	1.4	1.4	0.9	0.9	0.2	0.2
0.413	5.2724	5.1608	0.16157	1.4	1.4	0.9	0.9	0.2	0.2
0.414	5.2968	5.1821	0.14906	1.4	1.4	0.9	0.9	0.2	0.2
0.415	5.344	5.2276	0.16225	1.4	1.4	0.9	0.9	0.2	0.2
0.416	5.3766	5.2567	0.15736	1.4	1.4	0.9	0.9	0.2	0.2
0.417	5.4134	5.2903	0.16174	1.4	1.4	0.9	0.9	0.2	0.2
0.418	5.4716	5.3479	0.19833	1.4	1.4	0.9	0.9	0.2	0.2
0.419	5.5127	5.3903	0.21247	1.4	1.4	0.9	0.9	0.2	0.2
0.42	5.5552	5.4325	0.22795	1.4	1.4	0.9	0.9	0.2	0.2
0.421	5.6068	5.4815	0.25486	1.4	1.4	0.9	0.9	0.2	0.2
0.422	5.6645	5.5359	0.29026	1.4	1.4	0.9	0.9	0.2	0.2
0.423	5.7283	5.5975	0.33553	1.4	1.4	0.9	0.9	0.2	0.2
0.424	5.7864	5.6541	0.37415	1.4	1.4	0.9	0.9	0.2	0.2
0.425	5.8225	5.6878	0.38243	1.4	1.4	0.9	0.9	0.2	0.2
0.426	5.861	5.7248	0.40007	1.4	1.4	0.9	0.9	0.2	0.2
0.427	5.9076	5.7697	0.43236	1.4	1.4	0.9	0.9	0.2	0.2
0.428	5.9624	5.8223	0.47716	1.4	1.4	0.9	0.9	0.2	0.2
0.429	6.0097	5.8686	0.51	1.4	1.4	0.9	0.9	0.2	0.2
0.43	6.0492	5.908	0.53536	1.4	1.4	0.9	0.9	0.2	0.2
0.431	6.0853	5.9438	0.56068	1.4	1.4	0.9	0.9	0.2	0.2
0.432	6.127	5.9827	0.59773	1.4	1.4	0.9	0.9	0.2	0.2
0.433	6.1591	6.0119	0.62153	1.4	1.4	0.9	0.9	0.2	0.2
0.434	6.1882	6.0391	0.64208	1.4	1.4	0.9	0.9	0.2	0.2
0.435	6.223	6.0733	0.67259	1.4	1.4	0.9	0.9	0.2	0.2
0.436	6.2576	6.1073	0.70523	1.4	1.4	0.9	0.9	0.2	0.2
0.437	6.2924	6.1404	0.738	1.4	1.4	0.9	0.9	0.2	0.2
0.438	6.3262	6.1714	0.76878	1.4	1.4	0.9	0.9	0.2	0.2
0.439	6.354	6.1975	0.79433	1.4	1.4	0.9	0.9	0.2	0.2
0.44	6.3814	6.224	0.82139	1.4	1.4	0.9	0.9	0.2	0.2
0.441	6.4071	6.2493	0.84899	1.4	1.4	0.9	0.9	0.2	0.2
0.442	6.4262	6.2682	0.872	1.4	1.4	0.9	0.9	0.2	0.2
0.443	6.4535	6.2945	0.90436	1.4	1.4	0.9	0.9	0.2	0.2
0.444	6.482	6.3219	0.93762	1.4	1.4	0.9	0.9	0.2	0.2
0.445	6.5045	6.3438	0.96322	1.4	1.4	0.9	0.9	0.2	0.2
0.446	6.5266	6.3666	0.9907	1.4	1.4	0.9	0.9	0.2	0.2
0.447	6.549	6.3899	1.0198	1.4	1.4	0.9	0.9	0.2	0.2
0.448	6.5701	6.4115	1.0478	1.4	1.4	0.9	0.9	0.2	0.2
0.449	6.5869	6.4287	1.0704	1.4	1.4	0.9	0.9	0.2	0.2
0.45	6.58	6.4189	1.0578	1.4	1.4	0.9	0.9	0.2	0.2
0.451	6.6048	6.4418	1.0943	1.4	1.4	0.9	0.9	0.2	0.2
0.452	6.6389	6.4757	1.1436	1.4	1.4	0.9	0.9	0.2	0.2
0.453	6.6707	6.5092	1.1886	1.4	1.4	0.9	0.9	0.2	0.2
0.454	6.6899	6.5321	1.2164	1.4	1.4	0.9	0.9	0.2	0.2
0.455	6.7004	6.547	1.2349	1.4	1.4	0.9	0.9	0.2	0.2
0.456	6.7096	6.558	1.251	1.4	1.4	0.9	0.9	0.2	0.2
0.457	6.7282	6.5785	1.2843	1.4	1.4	0.9	0.9	0.2	0.2
0.458	6.7385	6.591	1.3053	1.4	1.4	0.9	0.9	0.2	0.2
0.459	6.7434	6.5982	1.3204	1.4	1.4	0.9	0.9	0.2	0.2
0.46	6.7526	6.6106	1.3432	1.4	1.4	0.9	0.9	0.2	0.2
0.461	6.7637	6.623	1.3656	1.4	1.4	0.9	0.9	0.2	0.2
0.462	6.7679	6.6263	1.3784	1.4	1.4	0.9	0.9	0.2	0.2
0.463	6.772	6.6291	1.3926	1.4	1.4	0.9	0.9	0.2	0.2
0.464	6.7731	6.6308	1.4042	1.4	1.4	0.9	0.9	0.2	0.2
0.465	6.7763	6.6349	1.4197	1.4	1.4	0.9	0.9	0.2	0.2
0.466	6.781	6.6405	1.4381	1.4	1.4	0.9	0.9	0.2	0.2
0.467	6.794	6.6514	1.4641	1.4	1.4	0.9	0.9	0.2	0.2
0.468	6.8057	6.662	1.4891	1.4	1.4	0.9	0.9	0.2	0.2
0.469	6.8112	6.6673	1.5055	1.4	1.4	0.9	0.9	0.2	0.2
0.47	6.8114	6.6646	1.5115	1.4	1.4	0.9	0.9	0.2	0.2
0.471	6.818	6.6697	1.5288	1.4	1.4	0.9	0.9	0.2	0.2
0.472	6.8205	6.6702	1.5385	1.4	1.4	0.9	0.9	0.2	0.2
0.473	6.8236	6.6711	1.548	1.4	1.4	0.9	0.9	0.2	0.2
0.474	6.8237	6.6721	1.5582	1.4	1.4	0.9	0.9	0.2	0.2
0.475	6.8229	6.6728	1.5658	1.4	1.4	0.9	0.9	0.2	0.2
0.476	6.8311	6.6814	1.5812	1.4	1.4	0.9	0.9	0.2	0.2
0.477	6.8398	6.6904	1.5979	1.4	1.4	0.9	0.9	0.2	0.2
0.478	6.8376	6.6904	1.6029	1.4	1.4	0.9	0.9	0.2	0.2
0.479	6.8313	6.6875	1.6058	1.4	1.4	0.9	0.9	0.2	0.2
0.48	6.8313	6.6902	1.616	1.4	1.4	0.9	0.9	0.2	0.2
0.481	6.8378	6.6962	1.6312	1.4	1.4	0.9	0.9	0.2	0.2
0.482	6.8365	6.6959	1.6389	1.4	1.4	0.9	0.9	0.2	0.2
0.483	6.8294	6.6909	1.6401	1.4	1.4	0.9	0.9	0.2	0.2
0.484	6.8278	6.688	1.6442	1.4	1.4	0.9	0.9	0.2	0.2
0.485	6.8358	6.6948	1.66	1.4	1.4	0.9	0.9	0.2	0.2
0.486	6.8429	6.6999	1.6746	1.4	1.4	0.9	0.9	0.2	0.2
0.487	6.8528	6.7091	1.6948	1.4	1.4	0.9	0.9	0.2	0.2
0.488	6.858	6.7159	1.7116	1.4	1.4	0.9	0.9	0.2	0.2
0.489	6.8684	6.7277	1.732	1.4	1.4	0.9	0.9	0.2	0.2
0.49	6.8946	6.7544	1.7688	1.4	1.4	0.9	0.9	0.2	0.2
0.491	6.9156	6.7768	1.8028	1.4	1.4	0.9	0.9	0.2	0.2
0.492	6.9297	6.7938	1.8316	1.4	1.4	0.9	0.9	0.2	0.2
0.493	6.9465	6.813	1.8638	1.4	1.4	0.9	0.9	0.2	0.2
0.494	6.9724	6.8399	1.9062	1.4	1.4	0.9	0.9	0.2	0.2
0.495	7.0036	6.8711	1.9566	1.4	1.4	0.9	0.9	0.2	0.2
0.496	7.0414	6.9099	2.0167	1.4	1.4	0.9	0.9	0.2	0.2
0.497	7.0825	6.9527	2.082	1.4	1.4	0.9	0.9	0.2	0.2
0.498	7.1313	7.0019	2.1561	1.4	1.4	0.9	0.9	0.2	0.2
0.499	7.1834	7.0536	2.2342	1.4	1.4	0.9	0.9	0.2	0.2
0.5	7.2371	7.1069	2.3151	1.4	1.4	0.9	0.9	0.2	0.2
0.501	7.2986	7.1692	2.4083	1.4	1.4	0.9	0.9	0.2	0.2
0.502	7.3612	7.2327	2.5045	1.4	1.4	0.9	0.9	0.2	0.2
0.503	7.4314	7.3046	2.6109	1.4	1.4	0.9	0.9	0.2	0.2
0.504	7.5156	7.3895	2.7373	1.4	1.4	0.9	0.9	0.2	0.2
0.505	7.5994	7.4731	2.867	1.4	1.4	0.9	0.9	0.2	0.2
0.506	7.683	7.5564	2.9988	1.4	1.4	0.9	0.9	0.2	0.2
0.507	7.7752	7.6477	3.1439	1.4	1.4	0.9	0.9	0.2	0.2
0.508	7.8755	7.7476	3.304	1.4	1.4	0.9	0.9	0.2	0.2
0.509	7.9856	7.8574	3.4794	1.4	1.4	0.9	0.9	0.2	0.2
0.51	8.101	7.9718	3.6642	1.4	1.4	0.9	0.9	0.2	0.2
0.511	8.2216	8.0898	3.857	1.4	1.4	0.9	0.9	0.2	0.2
0.512	8.3533	8.2184	4.0648	1.4	1.4	0.9	0.9	0.2	0.2
0.513	8.4982	8.3602	4.2925	1.4	1.4	0.9	0.9	0.2	0.2
0.514	8.6503	8.5085	4.5314	1.4	1.4	0.9	0.9	0.2	0.2
0.515	8.8087	8.6625	4.7804	1.4	1.4	0.9	0.9	0.2	0.2
0.516	8.978	8.8274	5.0445	1.4	1.4	0.9	0.9	0.2	0.2
0.517	9.1639	9.0081	5.33	1.4	1.4	0.9	0.9	0.2	0.2
0.518	9.3604	9.1973	5.6315	1.4	1.4	0.9	0.9	0.2	0.2
0.519	9.5578	9.3871	5.9371	1.4	1.4	0.9	0.9	0.2	0.2
0.52	9.7598	9.5834	6.2481	1.4	1.4	0.9	0.9	0.2	0.2
0.521	9.9706	9.7885	6.5697	1.4	1.4	0.9	0.9	0.2	0.2
0.522	10.1875	9.9985	6.897	1.4	1.4	0.9	0.9	0.2	0.2
0.523	10.407	10.2104	7.2259	1.4	1.4	0.9	0.9	0.2	0.2
0.524	10.6256	10.4204	7.5511	1.4	1.4	0.9	0.9	0.2	0.2
0.525	10.8459	10.6314	7.8741	1.4	1.4	0.9	0.9	0.2	0.2
0.526	11.0647	10.8418	8.1933	1.4	1.4	0.9	0.9	0.2	0.2
0.527	11.2795	11.0482	8.5062	1.4	1.4	0.9	0.9	0.2	0.2
0.528	11.4856	11.2452	8.8039	1.4	1.4	0.9	0.9	0.2	0.2
0.529	11.6844	11.4355	9.0893	1.4	1.4	0.9	0.9	0.2	0.2
0.53	11.8779	11.621	9.3649	1.4	1.4	0.9	0.9	0.2	0.2
0.531	12.0641	11.7987	9.6288	1.4	1.4	0.9	0.9	0.2	0.2
0.532	12.237	11.9632	9.8748	1.4	1.4	0.9	0.9	0.2	0.2
0.533	12.3948	12.1145	10.1014	1.4	1.4	0.9	0.9	0.2	0.2
0.534	12.5446	12.2595	10.3153	1.4	1.4	0.9	0.9	0.2	0.2
0.535	12.6825	12.393	10.513	1.4	1.4	0.9	0.9	0.2	0.2
0.536	12.806	12.5126	10.6916	1.4	1.4	0.9	0.9	0.2	0.2
0.537	12.9166	12.6206	10.8538	1.4	1.4	0.9	0.9	0.2	0.2
0.538	13.0163	12.7179	11.0014	1.4	1.4	0.9	0.9	0.2	0.2
0.539	13.1039	12.804	11.135	1.4	1.4	0.9	0.9	0.2	0.2
0.54	13.1794	12.8797	11.2549	1.4	1.4	0.9	0.9	0.2	0.2
0.541	13.2463	12.9471	11.3638	1.4	1.4	0.9	0.9	0.2	0.2
0.542	13.3087	13.0108	11.4679	1.4	1.4	0.9	0.9	0.2	0.2
0.543	13.3665	13.0712	11.5654	1.4	1.4	0.9	0.9	0.2	0.2
0.544	13.4219	13.1294	11.6589	1.4	1.4	0.9	0.9	0.2	0.2
0.545	13.4773	13.1866	11.7524	1.4	1.4	0.9	0.9	0.2	0.2
0.546	13.5302	13.2414	11.8423	1.4	1.4	0.9	0.9	0.2	0.2
0.547	13.5812	13.2953	11.9302	1.4	1.4	0.9	0.9	0.2	0.2
0.548	13.6309	13.3479	12.0163	1.4	1.4	0.9	0.9	0.2	0.2
0.549	13.6801	13.4	12.1015	1.4	1.4	0.9	0.9	0.2	0.2
0.55	13.7265	13.4494	12.1818	1.4	1.4	0.9	0.9	0.2	0.2
0.551	13.7694	13.4948	12.2572	1.4	1.4	0.9	0.9	0.2	0.2
0.552	13.8051	13.5332	12.3241	1.4	1.4	0.9	0.9	0.2	0.2
0.553	13.8317	13.5627	12.3815	1.4	1.4	0.9	0.9	0.2	0.2
0.554	13.8492	13.5837	12.4279	1.4	1.4	0.9	0.9	0.2	0.2
0.555	13.8584	13.5964	12.4639	1.4	1.4	0.9	0.9	0.2	0.2
0.556	13.8563	13.5983	12.4865	1.4	1.4	0.9	0.9	0.2	0.2
0.557	13.8407	13.5873	12.4908	1.4	1.4	0.9	0.9	0.2	0.2
0.558	13.8152	13.5662	12.4822	1.4	1.4	0.9	0.9	0.2	0.2
0.559	13.7772	13.5324	12.4587	1.4	1.4	0.9	0.9	0.2	0.2
0.56	13.7247	13.485	12.416	1.4	1.4	0.9	0.9	0.2	0.2
0.561	13.6619	13.427	12.3587	1.4	1.4	0.9	0.9	0.2	0.2
0.562	13.592	13.3626	12.2913	1.4	1.4	0.9	0.9	0.2	0.2
0.563	13.5158	13.2917	12.2144	1.4	1.4	0.9	0.9	0.2	0.2
0.564	13.4314	13.2121	12.1254	1.4	1.4	0.9	0.9	0.2	0.2
0.565	13.338	13.1232	12.0228	1.4	1.4	0.9	0.9	0.2	0.2
0.566	13.2359	13.0256	11.9079	1.4	1.4	0.9	0.9	0.2	0.2
0.567	13.1268	12.9206	11.7832	1.4	1.4	0.9	0.9	0.2	0.2
0.568	13.0102	12.8082	11.6479	1.4	1.4	0.9	0.9	0.2	0.2
0.569	12.8869	12.6883	11.5017	1.4	1.4	0.9	0.9	0.2	0.2
0.57	12.7562	12.5611	11.3448	1.4	1.4	0.9	0.9	0.2	0.2
0.571	12.6214	12.43	11.181	1.4	1.4	0.9	0.9	0.2	0.2
0.572	12.4812	12.2938	11.0095	1.4	1.4	0.9	0.9	0.2	0.2
0.573	12.3363	12.1527	10.831	1.4	1.4	0.9	0.9	0.2	0.2
0.574	12.1919	12.0115	10.6504	1.4	1.4	0.9	0.9	0.2	0.2
0.575	12.0508	11.8742	10.4726	1.4	1.4	0.9	0.9	0.2	0.2
0.576	11.9162	11.7439	10.3024	1.4	1.4	0.9	0.9	0.2	0.2
0.577	11.7876	11.6191	10.139	1.4	1.4	0.9	0.9	0.2	0.2
0.578	11.6633	11.4981	9.9807	1.4	1.4	0.9	0.9	0.2	0.2
0.579	11.5436	11.3815	9.8269	1.4	1.4	0.9	0.9	0.2	0.2
0.58	11.4309	11.2719	9.6815	1.4	1.4	0.9	0.9	0.2	0.2
0.581	11.3274	11.1719	9.5484	1.4	1.4	0.9	0.9	0.2	0.2
0.582	11.2279	11.0751	9.4202	1.4	1.4	0.9	0.9	0.2	0.2
0.583	11.1338	10.9826	9.2985	1.4	1.4	0.9	0.9	0.2	0.2
0.584	11.0465	10.8976	9.1867	1.4	1.4	0.9	0.9	0.2	0.2
0.585	10.9651	10.8187	9.0838	1.4	1.4	0.9	0.9	0.2	0.2
0.586	10.8879	10.7438	8.9873	1.4	1.4	0.9	0.9	0.2	0.2
0.587	10.8169	10.6746	8.899	1.4	1.4	0.9	0.9	0.2	0.2
0.588	10.7474	10.6065	8.813	1.4	1.4	0.9	0.9	0.2	0.2
0.589	10.6838	10.5442	8.7356	1.4	1.4	0.9	0.9	0.2	0.2
0.59	10.6284	10.4898	8.669	1.4	1.4	0.9	0.9	0.2	0.2
0.591	10.5799	10.4426	8.6114	1.4	1.4	0.9	0.9	0.2	0.2
0.592	10.5357	10.3987	8.5594	1.4	1.4	0.9	0.9	0.2	0.2
0.593	10.4969	10.3597	8.514	1.4	1.4	0.9	0.9	0.2	0.2
0.594	10.4655	10.3282	8.4784	1.4	1.4	0.9	0.9	0.2	0.2
0.595	10.4406	10.3032	8.4508	1.4	1.4	0.9	0.9	0.2	0.2
0.596	10.4166	10.2781	8.4238	1.4	1.4	0.9	0.9	0.2	0.2
0.597	10.3954	10.2565	8.4016	1.4	1.4	0.9	0.9	0.2	0.2
0.598	10.3747	10.2363	8.3813	1.4	1.4	0.9	0.9	0.2	0.2
0.599	10.3543	10.2162	8.3611	1.4	1.4	0.9	0.9	0.2	0.2
0.6	10.3334	10.1956	8.3397	1.4	1.4	0.9	0.9	0.2	0.2
0.601	10.3073	10.1703	8.3126	1.4	1.4	0.9	0.9	0.2	0.2
0.602	10.2752	10.1393	8.2781	1.4	1.4	0.9	0.9	0.2	0.2
0.603	10.2435	10.1091	8.2438	1.4	1.4	0.9	0.9	0.2	0.2
0.604	10.2107	10.0771	8.2064	1.4	1.4	0.9	0.9	0.2	0.2
0.605	10.1743	10.0425	8.1638	1.4	1.4	0.9	0.9	0.2	0.2
0.606	10.1328	10.0023	8.1133	1.4	1.4	0.9	0.9	0.2	0.2
0.607	10.0857	9.956	8.0531	1.4	1.4	0.9	0.9	0.2	0.2
0.608	10.0342	9.9061	7.9861	1.4	1.4	0.9	0.9	0.2	0.2
0.609	9.9793	9.8531	7.9127	1.4	1.4	0.9	0.9	0.2	0.2
0.61	9.9218	9.7975	7.8346	1.4	1.4	0.9	0.9	0.2	0.2
0.611	9.8585	9.7363	7.7481	1.4	1.4	0.9	0.9	0.2	0.2
0.612	9.791	9.6709	7.6546	1.4	1.4	0.9	0.9	0.2	0.2
0.613	9.7238	9.6053	7.5596	1.4	1.4	0.9	0.9	0.2	0.2
0.614	9.6554	9.5391	7.4622	1.4	1.4	0.9	0.9	0.2	0.2
0.615	9.5847	9.4709	7.362	1.4	1.4	0.9	0.9	0.2	0.2
0.616	9.5156	9.4042	7.2632	1.4	1.4	0.9	0.9	0.2	0.2
0.617	9.45	9.3402	7.1685	1.4	1.4	0.9	0.9	0.2	0.2
0.618	9.3866	9.2775	7.0761	1.4	1.4	0.9	0.9	0.2	0.2
0.619	9.3261	9.2182	6.9879	1.4	1.4	0.9	0.9	0.2	0.2
0.62	9.2697	9.1624	6.9053	1.4	1.4	0.9	0.9	0.2	0.2
0.621	9.2142	9.1065	6.8243	1.4	1.4	0.9	0.9	0.2	0.2
0.622	9.1631	9.0555	6.7509	1.4	1.4	0.9	0.9	0.2	0.2
0.623	9.1198	9.0124	6.6882	1.4	1.4	0.9	0.9	0.2	0.2
0.624	9.0821	8.9751	6.634	1.4	1.4	0.9	0.9	0.2	0.2
0.625	9.048	8.9415	6.5868	1.4	1.4	0.9	0.9	0.2	0.2
0.626	9.0197	8.9139	6.5501	1.4	1.4	0.9	0.9	0.2	0.2
0.627	8.9951	8.8907	6.5203	1.4	1.4	0.9	0.9	0.2	0.2
0.628	8.9724	8.8696	6.4944	1.4	1.4	0.9	0.9	0.2	0.2
0.629	8.9529	8.8511	6.4733	1.4	1.4	0.9	0.9	0.2	0.2
0.63	8.9402	8.8395	6.4618	1.4	1.4	0.9	0.9	0.2	0.2
0.631	8.9322	8.832	6.4571	1.4	1.4	0.9	0.9	0.2	0.2
0.632	8.9242	8.8239	6.4523	1.4	1.4	0.9	0.9	0.2	0.2
0.633	8.9135	8.8132	6.4441	1.4	1.4	0.9	0.9	0.2	0.2
0.634	8.9005	8.7998	6.4326	1.4	1.4	0.9	0.9	0.2	0.2
0.635	8.8808	8.779	6.4115	1.4	1.4	0.9	0.9	0.2	0.2
0.636	8.8566	8.7533	6.3822	1.4	1.4	0.9	0.9	0.2	0.2
0.637	8.827	8.7224	6.3434	1.4	1.4	0.9	0.9	0.2	0.2
0.638	8.7898	8.6843	6.2927	1.4	1.4	0.9	0.9	0.2	0.2
0.639	8.7456	8.6397	6.2309	1.4	1.4	0.9	0.9	0.2	0.2
0.64	8.6903	8.5842	6.1527	1.4	1.4	0.9	0.9	0.2	0.2
0.641	8.627	8.5207	6.0606	1.4	1.4	0.9	0.9	0.2	0.2
0.642	8.5593	8.4522	5.9588	1.4	1.4	0.9	0.9	0.2	0.2
0.643	8.4888	8.3807	5.8498	1.4	1.4	0.9	0.9	0.2	0.2
0.644	8.4177	8.3088	5.7368	1.4	1.4	0.9	0.9	0.2	0.2
0.645	8.3429	8.2326	5.6167	1.4	1.4	0.9	0.9	0.2	0.2
0.646	8.264	8.1522	5.49	1.4	1.4	0.9	0.9	0.2	0.2
0.647	8.1843	8.0711	5.3616	1.4	1.4	0.9	0.9	0.2	0.2
0.648	8.1078	7.9934	5.237	1.4	1.4	0.9	0.9	0.2	0.2
0.649	8.0345	7.919	5.116	1.4	1.4	0.9	0.9	0.2	0.2
0.65	7.9673	7.8504	5.0034	1.4	1.4	0.9	0.9	0.2	0.2
0.651	7.9059	7.7877	4.8995	1.4	1.4	0.9	0.9	0.2	0.2
0.652	7.8504	7.7309	4.8038	1.4	1.4	0.9	0.9	0.2	0.2
0.653	7.8016	7.6808	4.7173	1.4	1.4	0.9	0.9	0.2	0.2
0.654	7.7547	7.6326	4.6342	1.4	1.4	0.9	0.9	0.2	0.2
0.655	7.7126	7.5897	4.5576	1.4	1.4	0.9	0.9	0.2	0.2
0.656	7.6756	7.5522	4.4872	1.4	1.4	0.9	0.9	0.2	0.2
0.657	7.6375	7.5136	4.414	1.4	1.4	0.9	0.9	0.2	0.2
0.658	7.5971	7.4724	4.3351	1.4	1.4	0.9	0.9	0.2	0.2
0.659	7.5542	7.4284	4.2497	1.4	1.4	0.9	0.9	0.2	0.2
0.66	7.5052	7.3781	4.1541	1.4	1.4	0.9	0.9	0.2	0.2
0.661	7.4511	7.3227	4.0485	1.4	1.4	0.9	0.9	0.2	0.2
0.662	7.3915	7.2621	3.9322	1.4	1.4	0.9	0.9	0.2	0.2
0.663	7.3291	7.1989	3.809	1.4	1.4	0.9	0.9	0.2	0.2
0.664	7.2668	7.1344	3.6834	1.4	1.4	0.9	0.9	0.2	0.2
0.665	7.2041	7.0679	3.5547	1.4	1.4	0.9	0.9	0.2	0.2
0.666	7.1398	6.9993	3.4228	1.4	1.4	0.9	0.9	0.2	0.2
0.667	7.0799	6.9348	3.2961	1.4	1.4	0.9	0.9	0.2	0.2
0.668	7.0245	6.8746	3.1759	1.4	1.4	0.9	0.9	0.2	0.2
0.669	6.9766	6.8214	3.0664	1.4	1.4	0.9	0.9	0.2	0.2
0.67	6.9385	6.7774	2.9709	1.4	1.4	0.9	0.9	0.2	0.2
0.671	6.9072	6.7388	2.8847	1.4	1.4	0.9	0.9	0.2	0.2
0.672	6.8842	6.707	2.8097	1.4	1.4	0.9	0.9	0.2	0.2
0.673	6.8696	6.6837	2.7469	1.4	1.4	0.9	0.9	0.2	0.2
0.674	6.8601	6.6653	2.692	1.4	1.4	0.9	0.9	0.2	0.2
0.675	6.8563	6.6521	2.6448	1.4	1.4	0.9	0.9	0.2	0.2
0.676	6.8616	6.6481	2.6091	1.4	1.4	0.9	0.9	0.2	0.2
0.677	6.8732	6.6502	2.5812	1.4	1.4	0.9	0.9	0.2	0.2
0.678	6.8891	6.6556	2.5589	1.4	1.4	0.9	0.9	0.2	0.2
0.679	6.9105	6.6658	2.5432	1.4	1.4	0.9	0.9	0.2	0.2
0.68	6.9358	6.6806	2.5336	1.4	1.4	0.9	0.9	0.2	0.2
0.681	6.97	6.7045	2.5376	1.4	1.4	0.9	0.9	0.2	0.2
0.682	7.0131	6.7372	2.5569	1.4	1.4	0.9	0.9	0.2	0.2
0.683	7.0686	6.7832	2.5977	1.4	1.4	0.9	0.9	0.2	0.2
0.684	7.1382	6.8444	2.6663	1.4	1.4	0.9	0.9	0.2	0.2
0.685	7.222	6.9208	2.7662	1.4	1.4	0.9	0.9	0.2	0.2
0.686	7.3208	7.0144	2.9008	1.4	1.4	0.9	0.9	0.2	0.2
0.687	7.4382	7.1295	3.079	1.4	1.4	0.9	0.9	0.2	0.2
0.688	7.5777	7.2683	3.3073	1.4	1.4	0.9	0.9	0.2	0.2
0.689	7.7403	7.4325	3.5894	1.4	1.4	0.9	0.9	0.2	0.2
0.69	7.9333	7.6292	3.9357	1.4	1.4	0.9	0.9	0.2	0.2
0.691	8.1583	7.8583	4.3475	1.4	1.4	0.9	0.9	0.2	0.2
0.692	8.4205	8.1248	4.829	1.4	1.4	0.9	0.9	0.2	0.2
0.693	8.725	8.4331	5.3848	1.4	1.4	0.9	0.9	0.2	0.2
0.694	9.0749	8.7859	6.0142	1.4	1.4	0.9	0.9	0.2	0.2
0.695	9.4732	9.1856	6.7161	1.4	1.4	0.9	0.9	0.2	0.2
0.696	9.9209	9.633	7.4866	1.4	1.4	0.9	0.9	0.2	0.2
0.697	10.4218	10.1322	8.3236	1.4	1.4	0.9	0.9	0.2	0.2
0.698	10.9733	10.6798	9.2183	1.4	1.4	0.9	0.9	0.2	0.2
0.699	11.5735	11.2738	10.163	1.4	1.4	0.9	0.9	0.2	0.2
0.7	12.2172	11.9095	11.1444	1.4	1.4	0.9	0.9	0.2	0.2
0.701	12.8981	12.5806	12.1522	1.4	1.4	0.9	0.9	0.2	0.2
0.702	13.6077	13.2795	13.175	1.4	1.4	0.9	0.9	0.2	0.2
0.703	14.3376	13.9975	14.2002	1.4	1.4	0.9	0.9	0.2	0.2
0.704	15.0835	14.7297	15.2214	1.4	1.4	0.9	0.9	0.2	0.2
0.705	15.8369	15.4686	16.2282	1.4	1.4	0.9	0.9	0.2	0.2
0.706	16.589	16.2057	17.2125	1.4	1.4	0.9	0.9	0.2	0.2
0.707	17.3356	16.9367	18.1711	1.4	1.4	0.9	0.9	0.2	0.2
0.708	18.0751	17.6601	19.102	1.4	1.4	0.9	0.9	0.2	0.2
0.709	18.802	18.3708	20.0015	1.4	1.4	0.9	0.9	0.2	0.2
0.71	19.5157	19.0687	20.8715	1.4	1.4	0.9	0.9	0.2	0.2
0.711	20.2186	19.7554	21.715	1.4	1.4	0.9	0.9	0.2	0.2
0.712	20.9088	20.4291	22.532	1.4	1.4	0.9	0.9	0.2	0.2
0.713	21.5893	21.0936	23.3277	1.4	1.4	0.9	0.9	0.2	0.2
0.714	22.2593	21.7483	24.101	1.4	1.4	0.9	0.9	0.2	0.2
0.715	22.9194	22.3935	24.854	1.4	1.4	0.9	0.9	0.2	0.2
0.716	23.5692	23.0294	25.5883	1.4	1.4	0.9	0.9	0.2	0.2
0.717	24.2095	23.6561	26.3042	1.4	1.4	0.9	0.9	0.2	0.2
0.718	24.8401	24.2736	27.0027	1.4	1.4	0.9	0.9	0.2	0.2
0.719	25.4605	24.8823	27.6833	1.4	1.4	0.9	0.9	0.2	0.2
0.72	26.07	25.481	28.3463	1.4	1.4	0.9	0.9	0.2	0.2
0.721	26.6691	26.0704	28.9917	1.4	1.4	0.9	0.9	0.2	0.2
0.722	27.2572	26.6505	29.6203	1.4	1.4	0.9	0.9	0.2	0.2
0.723	27.8321	27.2189	30.2309	1.4	1.4	0.9	0.9	0.2	0.2
0.724	28.3947	27.7758	30.8243	1.4	1.4	0.9	0.9	0.2	0.2
0.725	28.9427	28.3187	31.3982	1.4	1.4	0.9	0.9	0.2	0.2
0.726	29.4739	28.846	31.9518	1.4	1.4	0.9	0.9	0.2	0.2
0.727	29.9899	29.3593	32.4869	1.4	1.4	0.9	0.9	0.2	0.2
0.728	30.4889	29.8569	33.0018	1.4	1.4	0.9	0.9	0.2	0.2
0.729	30.9692	30.3367	33.4951	1.4	1.4	0.9	0.9	0.2	0.2
0.73	31.4295	30.7979	33.9661	1.4	1.4	0.9	0.9	0.2	0.2
