*Name: Maple mid
Type: Leaf Spectrum
Particle Size: Solid
Wavelength Range: All

Origin: Remote Sensing Laboratories, University of Zurich

Description: abaxial reflectance, adaxial reflectance, and adaxial transmittance measured by ASD Integrating Sphere

Measurement: Hemispherical Conical Reflectance Factor HCRF

First Column:  X Wavelength (micrometers)
Second Column:  Y Reflectance (percent)
First X Value: 0.369
Last X Value: 2.493
Number of X Values: 2125
Additional Information:  None*

*Number of Lambda pertinent values : *  2125
*Lambda_min - Lambda_max : *  0.369 2.493
*Leaf parameters : Upper type of roughness [0/1 : cst/var] - Lower type of roughness* 0 0
*Lambda - Lower reflectance - Upper reflectance - Transmittance - Lower refraction index - Upper refracton index - Lower roughness [0;1] - Upper roughness - Lower roughness index [0.1;0.3] - Upper roughness index *
0.369	1.9386	1.9417	0.18434	1.4	1.4	0.9	0.9	0.2	0.2
0.37	2.2251	2.2242	0.20693	1.4	1.4	0.9	0.9	0.2	0.2
0.371	2.5105	2.5072	0.22974	1.4	1.4	0.9	0.9	0.2	0.2
0.372	2.7953	2.7907	0.25306	1.4	1.4	0.9	0.9	0.2	0.2
0.373	3.0745	3.0706	0.27802	1.4	1.4	0.9	0.9	0.2	0.2
0.374	3.344	3.3415	0.30182	1.4	1.4	0.9	0.9	0.2	0.2
0.375	3.5984	3.5926	0.31155	1.4	1.4	0.9	0.9	0.2	0.2
0.376	3.8578	3.8508	0.3418	1.4	1.4	0.9	0.9	0.2	0.2
0.377	4.1066	4.0997	0.37696	1.4	1.4	0.9	0.9	0.2	0.2
0.378	4.3155	4.3063	0.38245	1.4	1.4	0.9	0.9	0.2	0.2
0.379	4.5236	4.5134	0.41313	1.4	1.4	0.9	0.9	0.2	0.2
0.38	4.7065	4.6949	0.43843	1.4	1.4	0.9	0.9	0.2	0.2
0.381	4.8488	4.8342	0.44093	1.4	1.4	0.9	0.9	0.2	0.2
0.382	4.9795	4.9615	0.4672	1.4	1.4	0.9	0.9	0.2	0.2
0.383	5.0781	5.0552	0.48495	1.4	1.4	0.9	0.9	0.2	0.2
0.384	5.1373	5.1086	0.48754	1.4	1.4	0.9	0.9	0.2	0.2
0.385	5.1591	5.1242	0.48606	1.4	1.4	0.9	0.9	0.2	0.2
0.386	5.1374	5.0992	0.48227	1.4	1.4	0.9	0.9	0.2	0.2
0.387	5.0811	5.0417	0.48734	1.4	1.4	0.9	0.9	0.2	0.2
0.388	4.9986	4.9586	0.51071	1.4	1.4	0.9	0.9	0.2	0.2
0.389	4.8528	4.8113	0.51081	1.4	1.4	0.9	0.9	0.2	0.2
0.39	4.8757	4.8393	0.55327	1.4	1.4	0.9	0.9	0.2	0.2
0.391	4.8686	4.8524	0.5307	1.4	1.4	0.9	0.9	0.2	0.2
0.392	4.8763	4.8736	0.52851	1.4	1.4	0.9	0.9	0.2	0.2
0.393	4.8973	4.8991	0.5314	1.4	1.4	0.9	0.9	0.2	0.2
0.394	4.923	4.9215	0.52275	1.4	1.4	0.9	0.9	0.2	0.2
0.395	4.9151	4.913	0.47606	1.4	1.4	0.9	0.9	0.2	0.2
0.396	4.9069	4.9017	0.43123	1.4	1.4	0.9	0.9	0.2	0.2
0.397	4.908	4.8977	0.40307	1.4	1.4	0.9	0.9	0.2	0.2
0.398	4.9336	4.9224	0.41968	1.4	1.4	0.9	0.9	0.2	0.2
0.399	4.956	4.943	0.42336	1.4	1.4	0.9	0.9	0.2	0.2
0.4	4.9716	4.9594	0.41112	1.4	1.4	0.9	0.9	0.2	0.2
0.401	4.985	4.98	0.39292	1.4	1.4	0.9	0.9	0.2	0.2
0.402	5.0152	5.0147	0.39461	1.4	1.4	0.9	0.9	0.2	0.2
0.403	5.0303	5.031	0.37137	1.4	1.4	0.9	0.9	0.2	0.2
0.404	5.0262	5.0264	0.32242	1.4	1.4	0.9	0.9	0.2	0.2
0.405	5.0415	5.0445	0.30959	1.4	1.4	0.9	0.9	0.2	0.2
0.406	5.0509	5.0585	0.28807	1.4	1.4	0.9	0.9	0.2	0.2
0.407	5.061	5.0733	0.26622	1.4	1.4	0.9	0.9	0.2	0.2
0.408	5.0791	5.0953	0.25394	1.4	1.4	0.9	0.9	0.2	0.2
0.409	5.099	5.1183	0.24543	1.4	1.4	0.9	0.9	0.2	0.2
0.41	5.1197	5.1399	0.23282	1.4	1.4	0.9	0.9	0.2	0.2
0.411	5.1451	5.1645	0.22038	1.4	1.4	0.9	0.9	0.2	0.2
0.412	5.1854	5.2087	0.2339	1.4	1.4	0.9	0.9	0.2	0.2
0.413	5.2131	5.2379	0.23254	1.4	1.4	0.9	0.9	0.2	0.2
0.414	5.2336	5.2574	0.22172	1.4	1.4	0.9	0.9	0.2	0.2
0.415	5.2768	5.301	0.23993	1.4	1.4	0.9	0.9	0.2	0.2
0.416	5.3055	5.3269	0.23564	1.4	1.4	0.9	0.9	0.2	0.2
0.417	5.3377	5.3553	0.23665	1.4	1.4	0.9	0.9	0.2	0.2
0.418	5.3903	5.4047	0.26737	1.4	1.4	0.9	0.9	0.2	0.2
0.419	5.4273	5.4378	0.27335	1.4	1.4	0.9	0.9	0.2	0.2
0.42	5.4645	5.4726	0.28432	1.4	1.4	0.9	0.9	0.2	0.2
0.421	5.5076	5.5161	0.31148	1.4	1.4	0.9	0.9	0.2	0.2
0.422	5.5522	5.5631	0.3463	1.4	1.4	0.9	0.9	0.2	0.2
0.423	5.6047	5.6163	0.38861	1.4	1.4	0.9	0.9	0.2	0.2
0.424	5.6528	5.6632	0.42369	1.4	1.4	0.9	0.9	0.2	0.2
0.425	5.6767	5.6852	0.43068	1.4	1.4	0.9	0.9	0.2	0.2
0.426	5.705	5.7124	0.44374	1.4	1.4	0.9	0.9	0.2	0.2
0.427	5.7415	5.7458	0.46831	1.4	1.4	0.9	0.9	0.2	0.2
0.428	5.785	5.7833	0.50314	1.4	1.4	0.9	0.9	0.2	0.2
0.429	5.8201	5.8136	0.52707	1.4	1.4	0.9	0.9	0.2	0.2
0.43	5.8476	5.8378	0.54456	1.4	1.4	0.9	0.9	0.2	0.2
0.431	5.8721	5.8601	0.5625	1.4	1.4	0.9	0.9	0.2	0.2
0.432	5.9026	5.8884	0.5915	1.4	1.4	0.9	0.9	0.2	0.2
0.433	5.9231	5.9072	0.60859	1.4	1.4	0.9	0.9	0.2	0.2
0.434	5.9402	5.9226	0.62194	1.4	1.4	0.9	0.9	0.2	0.2
0.435	5.9626	5.9427	0.64282	1.4	1.4	0.9	0.9	0.2	0.2
0.436	5.9852	5.9633	0.66732	1.4	1.4	0.9	0.9	0.2	0.2
0.437	6.0065	5.9834	0.69319	1.4	1.4	0.9	0.9	0.2	0.2
0.438	6.0256	6.002	0.71774	1.4	1.4	0.9	0.9	0.2	0.2
0.439	6.042	6.0167	0.73635	1.4	1.4	0.9	0.9	0.2	0.2
0.44	6.0585	6.0316	0.75787	1.4	1.4	0.9	0.9	0.2	0.2
0.441	6.0743	6.0463	0.78043	1.4	1.4	0.9	0.9	0.2	0.2
0.442	6.0867	6.0575	0.79646	1.4	1.4	0.9	0.9	0.2	0.2
0.443	6.105	6.0749	0.82251	1.4	1.4	0.9	0.9	0.2	0.2
0.444	6.1233	6.0932	0.84955	1.4	1.4	0.9	0.9	0.2	0.2
0.445	6.1362	6.1071	0.86874	1.4	1.4	0.9	0.9	0.2	0.2
0.446	6.1494	6.1221	0.88924	1.4	1.4	0.9	0.9	0.2	0.2
0.447	6.1632	6.1376	0.91153	1.4	1.4	0.9	0.9	0.2	0.2
0.448	6.1759	6.1517	0.93295	1.4	1.4	0.9	0.9	0.2	0.2
0.449	6.1859	6.1623	0.94893	1.4	1.4	0.9	0.9	0.2	0.2
0.45	6.1764	6.1548	0.93674	1.4	1.4	0.9	0.9	0.2	0.2
0.451	6.1932	6.1722	0.96649	1.4	1.4	0.9	0.9	0.2	0.2
0.452	6.2197	6.199	1.0086	1.4	1.4	0.9	0.9	0.2	0.2
0.453	6.2464	6.2257	1.0481	1.4	1.4	0.9	0.9	0.2	0.2
0.454	6.2589	6.2411	1.0693	1.4	1.4	0.9	0.9	0.2	0.2
0.455	6.2627	6.2486	1.0814	1.4	1.4	0.9	0.9	0.2	0.2
0.456	6.2644	6.2545	1.0924	1.4	1.4	0.9	0.9	0.2	0.2
0.457	6.2747	6.2685	1.1174	1.4	1.4	0.9	0.9	0.2	0.2
0.458	6.2786	6.2734	1.1297	1.4	1.4	0.9	0.9	0.2	0.2
0.459	6.279	6.2726	1.135	1.4	1.4	0.9	0.9	0.2	0.2
0.46	6.2846	6.2759	1.1477	1.4	1.4	0.9	0.9	0.2	0.2
0.461	6.2902	6.2806	1.1637	1.4	1.4	0.9	0.9	0.2	0.2
0.462	6.2886	6.2787	1.1722	1.4	1.4	0.9	0.9	0.2	0.2
0.463	6.2883	6.278	1.1818	1.4	1.4	0.9	0.9	0.2	0.2
0.464	6.2863	6.2764	1.1915	1.4	1.4	0.9	0.9	0.2	0.2
0.465	6.286	6.2771	1.2048	1.4	1.4	0.9	0.9	0.2	0.2
0.466	6.2889	6.28	1.2184	1.4	1.4	0.9	0.9	0.2	0.2
0.467	6.2998	6.2895	1.24	1.4	1.4	0.9	0.9	0.2	0.2
0.468	6.3073	6.2965	1.259	1.4	1.4	0.9	0.9	0.2	0.2
0.469	6.3092	6.2981	1.2718	1.4	1.4	0.9	0.9	0.2	0.2
0.47	6.3038	6.2933	1.2739	1.4	1.4	0.9	0.9	0.2	0.2
0.471	6.3062	6.2952	1.2856	1.4	1.4	0.9	0.9	0.2	0.2
0.472	6.3067	6.2939	1.2911	1.4	1.4	0.9	0.9	0.2	0.2
0.473	6.3073	6.2933	1.2964	1.4	1.4	0.9	0.9	0.2	0.2
0.474	6.3061	6.2923	1.3026	1.4	1.4	0.9	0.9	0.2	0.2
0.475	6.3037	6.291	1.3095	1.4	1.4	0.9	0.9	0.2	0.2
0.476	6.31	6.2977	1.3273	1.4	1.4	0.9	0.9	0.2	0.2
0.477	6.3163	6.3058	1.3457	1.4	1.4	0.9	0.9	0.2	0.2
0.478	6.3129	6.305	1.3528	1.4	1.4	0.9	0.9	0.2	0.2
0.479	6.3075	6.3012	1.3544	1.4	1.4	0.9	0.9	0.2	0.2
0.48	6.3077	6.3036	1.3612	1.4	1.4	0.9	0.9	0.2	0.2
0.481	6.3121	6.3095	1.3753	1.4	1.4	0.9	0.9	0.2	0.2
0.482	6.3096	6.3079	1.381	1.4	1.4	0.9	0.9	0.2	0.2
0.483	6.3013	6.3019	1.378	1.4	1.4	0.9	0.9	0.2	0.2
0.484	6.2966	6.2982	1.3778	1.4	1.4	0.9	0.9	0.2	0.2
0.485	6.3027	6.3036	1.3916	1.4	1.4	0.9	0.9	0.2	0.2
0.486	6.3066	6.3078	1.4031	1.4	1.4	0.9	0.9	0.2	0.2
0.487	6.313	6.3148	1.4184	1.4	1.4	0.9	0.9	0.2	0.2
0.488	6.3163	6.3187	1.4295	1.4	1.4	0.9	0.9	0.2	0.2
0.489	6.3234	6.3265	1.4451	1.4	1.4	0.9	0.9	0.2	0.2
0.49	6.3445	6.3471	1.4785	1.4	1.4	0.9	0.9	0.2	0.2
0.491	6.3604	6.3633	1.5058	1.4	1.4	0.9	0.9	0.2	0.2
0.492	6.3714	6.3734	1.525	1.4	1.4	0.9	0.9	0.2	0.2
0.493	6.3835	6.385	1.5452	1.4	1.4	0.9	0.9	0.2	0.2
0.494	6.4021	6.4045	1.5742	1.4	1.4	0.9	0.9	0.2	0.2
0.495	6.425	6.4271	1.6101	1.4	1.4	0.9	0.9	0.2	0.2
0.496	6.4537	6.4548	1.655	1.4	1.4	0.9	0.9	0.2	0.2
0.497	6.4847	6.4846	1.7035	1.4	1.4	0.9	0.9	0.2	0.2
0.498	6.5214	6.519	1.7616	1.4	1.4	0.9	0.9	0.2	0.2
0.499	6.5587	6.5568	1.8238	1.4	1.4	0.9	0.9	0.2	0.2
0.5	6.596	6.5953	1.8849	1.4	1.4	0.9	0.9	0.2	0.2
0.501	6.642	6.6413	1.9571	1.4	1.4	0.9	0.9	0.2	0.2
0.502	6.6886	6.6883	2.0319	1.4	1.4	0.9	0.9	0.2	0.2
0.503	6.7405	6.7411	2.1162	1.4	1.4	0.9	0.9	0.2	0.2
0.504	6.8044	6.8046	2.2192	1.4	1.4	0.9	0.9	0.2	0.2
0.505	6.8665	6.8665	2.3233	1.4	1.4	0.9	0.9	0.2	0.2
0.506	6.9271	6.9279	2.4281	1.4	1.4	0.9	0.9	0.2	0.2
0.507	6.9941	6.9958	2.5447	1.4	1.4	0.9	0.9	0.2	0.2
0.508	7.0691	7.0711	2.6749	1.4	1.4	0.9	0.9	0.2	0.2
0.509	7.152	7.1543	2.8189	1.4	1.4	0.9	0.9	0.2	0.2
0.51	7.2378	7.2396	2.9716	1.4	1.4	0.9	0.9	0.2	0.2
0.511	7.3258	7.3273	3.1308	1.4	1.4	0.9	0.9	0.2	0.2
0.512	7.4219	7.425	3.3052	1.4	1.4	0.9	0.9	0.2	0.2
0.513	7.5294	7.5339	3.4979	1.4	1.4	0.9	0.9	0.2	0.2
0.514	7.6426	7.6467	3.6997	1.4	1.4	0.9	0.9	0.2	0.2
0.515	7.7607	7.7642	3.9134	1.4	1.4	0.9	0.9	0.2	0.2
0.516	7.8873	7.8907	4.1436	1.4	1.4	0.9	0.9	0.2	0.2
0.517	8.0269	8.0304	4.3959	1.4	1.4	0.9	0.9	0.2	0.2
0.518	8.1751	8.1781	4.6642	1.4	1.4	0.9	0.9	0.2	0.2
0.519	8.3231	8.3257	4.9362	1.4	1.4	0.9	0.9	0.2	0.2
0.52	8.4762	8.4777	5.2166	1.4	1.4	0.9	0.9	0.2	0.2
0.521	8.6375	8.6371	5.5098	1.4	1.4	0.9	0.9	0.2	0.2
0.522	8.8034	8.8017	5.8101	1.4	1.4	0.9	0.9	0.2	0.2
0.523	8.9714	8.9677	6.1126	1.4	1.4	0.9	0.9	0.2	0.2
0.524	9.1385	9.132	6.4132	1.4	1.4	0.9	0.9	0.2	0.2
0.525	9.3073	9.2981	6.7133	1.4	1.4	0.9	0.9	0.2	0.2
0.526	9.4755	9.4638	7.0105	1.4	1.4	0.9	0.9	0.2	0.2
0.527	9.6411	9.627	7.3011	1.4	1.4	0.9	0.9	0.2	0.2
0.528	9.7989	9.7833	7.578	1.4	1.4	0.9	0.9	0.2	0.2
0.529	9.9513	9.9347	7.8444	1.4	1.4	0.9	0.9	0.2	0.2
0.53	10.0997	10.0827	8.1013	1.4	1.4	0.9	0.9	0.2	0.2
0.531	10.2423	10.2253	8.3468	1.4	1.4	0.9	0.9	0.2	0.2
0.532	10.3734	10.3569	8.5741	1.4	1.4	0.9	0.9	0.2	0.2
0.533	10.4921	10.476	8.7823	1.4	1.4	0.9	0.9	0.2	0.2
0.534	10.6051	10.5893	8.9796	1.4	1.4	0.9	0.9	0.2	0.2
0.535	10.7078	10.6928	9.1604	1.4	1.4	0.9	0.9	0.2	0.2
0.536	10.798	10.7836	9.3212	1.4	1.4	0.9	0.9	0.2	0.2
0.537	10.8772	10.8629	9.4649	1.4	1.4	0.9	0.9	0.2	0.2
0.538	10.9463	10.9332	9.5944	1.4	1.4	0.9	0.9	0.2	0.2
0.539	11.0052	10.994	9.7098	1.4	1.4	0.9	0.9	0.2	0.2
0.54	11.0535	11.0454	9.8117	1.4	1.4	0.9	0.9	0.2	0.2
0.541	11.0945	11.0903	9.9025	1.4	1.4	0.9	0.9	0.2	0.2
0.542	11.133	11.1324	9.988	1.4	1.4	0.9	0.9	0.2	0.2
0.543	11.1685	11.1708	10.0683	1.4	1.4	0.9	0.9	0.2	0.2
0.544	11.2017	11.2076	10.1446	1.4	1.4	0.9	0.9	0.2	0.2
0.545	11.2351	11.2456	10.2209	1.4	1.4	0.9	0.9	0.2	0.2
0.546	11.2665	11.2816	10.294	1.4	1.4	0.9	0.9	0.2	0.2
0.547	11.2976	11.3165	10.3659	1.4	1.4	0.9	0.9	0.2	0.2
0.548	11.3283	11.3507	10.436	1.4	1.4	0.9	0.9	0.2	0.2
0.549	11.3593	11.3857	10.5052	1.4	1.4	0.9	0.9	0.2	0.2
0.55	11.3884	11.4182	10.5699	1.4	1.4	0.9	0.9	0.2	0.2
0.551	11.4145	11.4478	10.6302	1.4	1.4	0.9	0.9	0.2	0.2
0.552	11.435	11.4722	10.6828	1.4	1.4	0.9	0.9	0.2	0.2
0.553	11.4484	11.4896	10.7257	1.4	1.4	0.9	0.9	0.2	0.2
0.554	11.4539	11.4996	10.7583	1.4	1.4	0.9	0.9	0.2	0.2
0.555	11.4531	11.5029	10.7813	1.4	1.4	0.9	0.9	0.2	0.2
0.556	11.4437	11.4973	10.7915	1.4	1.4	0.9	0.9	0.2	0.2
0.557	11.4227	11.4799	10.7853	1.4	1.4	0.9	0.9	0.2	0.2
0.558	11.3935	11.4543	10.7664	1.4	1.4	0.9	0.9	0.2	0.2
0.559	11.3534	11.4185	10.7319	1.4	1.4	0.9	0.9	0.2	0.2
0.56	11.301	11.3694	10.6784	1.4	1.4	0.9	0.9	0.2	0.2
0.561	11.2404	11.3115	10.6111	1.4	1.4	0.9	0.9	0.2	0.2
0.562	11.1747	11.2473	10.5338	1.4	1.4	0.9	0.9	0.2	0.2
0.563	11.1036	11.1782	10.4468	1.4	1.4	0.9	0.9	0.2	0.2
0.564	11.0255	11.1018	10.3476	1.4	1.4	0.9	0.9	0.2	0.2
0.565	10.9393	11.0167	10.2347	1.4	1.4	0.9	0.9	0.2	0.2
0.566	10.8463	10.9246	10.1098	1.4	1.4	0.9	0.9	0.2	0.2
0.567	10.7477	10.8266	9.9745	1.4	1.4	0.9	0.9	0.2	0.2
0.568	10.6437	10.7229	9.829	1.4	1.4	0.9	0.9	0.2	0.2
0.569	10.5353	10.6146	9.6741	1.4	1.4	0.9	0.9	0.2	0.2
0.57	10.4216	10.5011	9.5101	1.4	1.4	0.9	0.9	0.2	0.2
0.571	10.3054	10.3846	9.3409	1.4	1.4	0.9	0.9	0.2	0.2
0.572	10.1866	10.2647	9.1646	1.4	1.4	0.9	0.9	0.2	0.2
0.573	10.0651	10.1425	8.9822	1.4	1.4	0.9	0.9	0.2	0.2
0.574	9.9455	10.0221	8.7999	1.4	1.4	0.9	0.9	0.2	0.2
0.575	9.8303	9.9055	8.6223	1.4	1.4	0.9	0.9	0.2	0.2
0.576	9.7217	9.7954	8.4535	1.4	1.4	0.9	0.9	0.2	0.2
0.577	9.6186	9.6918	8.2929	1.4	1.4	0.9	0.9	0.2	0.2
0.578	9.5191	9.5923	8.1379	1.4	1.4	0.9	0.9	0.2	0.2
0.579	9.4229	9.4961	7.9884	1.4	1.4	0.9	0.9	0.2	0.2
0.58	9.3333	9.4064	7.8481	1.4	1.4	0.9	0.9	0.2	0.2
0.581	9.2526	9.3256	7.7201	1.4	1.4	0.9	0.9	0.2	0.2
0.582	9.1752	9.2473	7.5968	1.4	1.4	0.9	0.9	0.2	0.2
0.583	9.1016	9.1729	7.4799	1.4	1.4	0.9	0.9	0.2	0.2
0.584	9.033	9.1039	7.3727	1.4	1.4	0.9	0.9	0.2	0.2
0.585	8.9689	9.0395	7.2727	1.4	1.4	0.9	0.9	0.2	0.2
0.586	8.9088	8.9786	7.1775	1.4	1.4	0.9	0.9	0.2	0.2
0.587	8.854	8.9228	7.0905	1.4	1.4	0.9	0.9	0.2	0.2
0.588	8.7991	8.8674	7.0059	1.4	1.4	0.9	0.9	0.2	0.2
0.589	8.7492	8.8167	6.9303	1.4	1.4	0.9	0.9	0.2	0.2
0.59	8.7063	8.7733	6.8657	1.4	1.4	0.9	0.9	0.2	0.2
0.591	8.6687	8.7357	6.8092	1.4	1.4	0.9	0.9	0.2	0.2
0.592	8.6335	8.7007	6.7576	1.4	1.4	0.9	0.9	0.2	0.2
0.593	8.6021	8.6696	6.7128	1.4	1.4	0.9	0.9	0.2	0.2
0.594	8.577	8.6451	6.6777	1.4	1.4	0.9	0.9	0.2	0.2
0.595	8.5572	8.6253	6.6499	1.4	1.4	0.9	0.9	0.2	0.2
0.596	8.5369	8.6043	6.6221	1.4	1.4	0.9	0.9	0.2	0.2
0.597	8.5189	8.5857	6.5989	1.4	1.4	0.9	0.9	0.2	0.2
0.598	8.5001	8.5678	6.5773	1.4	1.4	0.9	0.9	0.2	0.2
0.599	8.4816	8.55	6.5552	1.4	1.4	0.9	0.9	0.2	0.2
0.6	8.4635	8.5319	6.5329	1.4	1.4	0.9	0.9	0.2	0.2
0.601	8.4415	8.5098	6.5051	1.4	1.4	0.9	0.9	0.2	0.2
0.602	8.4147	8.4833	6.4711	1.4	1.4	0.9	0.9	0.2	0.2
0.603	8.3905	8.4588	6.4388	1.4	1.4	0.9	0.9	0.2	0.2
0.604	8.3663	8.4339	6.4042	1.4	1.4	0.9	0.9	0.2	0.2
0.605	8.34	8.4074	6.3647	1.4	1.4	0.9	0.9	0.2	0.2
0.606	8.3103	8.3773	6.3185	1.4	1.4	0.9	0.9	0.2	0.2
0.607	8.2766	8.3429	6.2646	1.4	1.4	0.9	0.9	0.2	0.2
0.608	8.2402	8.3057	6.2053	1.4	1.4	0.9	0.9	0.2	0.2
0.609	8.2016	8.2657	6.1412	1.4	1.4	0.9	0.9	0.2	0.2
0.61	8.1625	8.2247	6.0739	1.4	1.4	0.9	0.9	0.2	0.2
0.611	8.119	8.1798	5.9991	1.4	1.4	0.9	0.9	0.2	0.2
0.612	8.0715	8.1318	5.9182	1.4	1.4	0.9	0.9	0.2	0.2
0.613	8.0252	8.0846	5.8364	1.4	1.4	0.9	0.9	0.2	0.2
0.614	7.9785	8.0369	5.7531	1.4	1.4	0.9	0.9	0.2	0.2
0.615	7.9298	7.9875	5.6669	1.4	1.4	0.9	0.9	0.2	0.2
0.616	7.8827	7.9395	5.5824	1.4	1.4	0.9	0.9	0.2	0.2
0.617	7.8382	7.8942	5.5012	1.4	1.4	0.9	0.9	0.2	0.2
0.618	7.7945	7.8499	5.422	1.4	1.4	0.9	0.9	0.2	0.2
0.619	7.7526	7.8081	5.3465	1.4	1.4	0.9	0.9	0.2	0.2
0.62	7.7135	7.7692	5.2757	1.4	1.4	0.9	0.9	0.2	0.2
0.621	7.6736	7.7295	5.206	1.4	1.4	0.9	0.9	0.2	0.2
0.622	7.6366	7.6929	5.1431	1.4	1.4	0.9	0.9	0.2	0.2
0.623	7.6058	7.6622	5.0899	1.4	1.4	0.9	0.9	0.2	0.2
0.624	7.5803	7.6363	5.0446	1.4	1.4	0.9	0.9	0.2	0.2
0.625	7.557	7.6124	5.0044	1.4	1.4	0.9	0.9	0.2	0.2
0.626	7.5383	7.5929	4.9725	1.4	1.4	0.9	0.9	0.2	0.2
0.627	7.5226	7.5764	4.9469	1.4	1.4	0.9	0.9	0.2	0.2
0.628	7.5074	7.5607	4.9244	1.4	1.4	0.9	0.9	0.2	0.2
0.629	7.4937	7.5468	4.9057	1.4	1.4	0.9	0.9	0.2	0.2
0.63	7.4858	7.5383	4.896	1.4	1.4	0.9	0.9	0.2	0.2
0.631	7.4811	7.5333	4.8924	1.4	1.4	0.9	0.9	0.2	0.2
0.632	7.4749	7.5273	4.8888	1.4	1.4	0.9	0.9	0.2	0.2
0.633	7.4658	7.5185	4.8811	1.4	1.4	0.9	0.9	0.2	0.2
0.634	7.4545	7.5076	4.8693	1.4	1.4	0.9	0.9	0.2	0.2
0.635	7.4374	7.4909	4.8487	1.4	1.4	0.9	0.9	0.2	0.2
0.636	7.417	7.471	4.8216	1.4	1.4	0.9	0.9	0.2	0.2
0.637	7.3935	7.4469	4.7868	1.4	1.4	0.9	0.9	0.2	0.2
0.638	7.3655	7.4177	4.7423	1.4	1.4	0.9	0.9	0.2	0.2
0.639	7.3328	7.3839	4.688	1.4	1.4	0.9	0.9	0.2	0.2
0.64	7.2921	7.342	4.6191	1.4	1.4	0.9	0.9	0.2	0.2
0.641	7.2461	7.2948	4.5394	1.4	1.4	0.9	0.9	0.2	0.2
0.642	7.1974	7.2448	4.4527	1.4	1.4	0.9	0.9	0.2	0.2
0.643	7.1476	7.1936	4.3624	1.4	1.4	0.9	0.9	0.2	0.2
0.644	7.099	7.1435	4.2717	1.4	1.4	0.9	0.9	0.2	0.2
0.645	7.0474	7.0911	4.176	1.4	1.4	0.9	0.9	0.2	0.2
0.646	6.9923	7.0353	4.0752	1.4	1.4	0.9	0.9	0.2	0.2
0.647	6.9375	6.9791	3.9733	1.4	1.4	0.9	0.9	0.2	0.2
0.648	6.886	6.9259	3.8754	1.4	1.4	0.9	0.9	0.2	0.2
0.649	6.8369	6.8751	3.7818	1.4	1.4	0.9	0.9	0.2	0.2
0.65	6.7924	6.8291	3.6957	1.4	1.4	0.9	0.9	0.2	0.2
0.651	6.7524	6.7868	3.6167	1.4	1.4	0.9	0.9	0.2	0.2
0.652	6.7165	6.7487	3.5446	1.4	1.4	0.9	0.9	0.2	0.2
0.653	6.6855	6.7161	3.4798	1.4	1.4	0.9	0.9	0.2	0.2
0.654	6.6554	6.6842	3.4166	1.4	1.4	0.9	0.9	0.2	0.2
0.655	6.6295	6.6561	3.3593	1.4	1.4	0.9	0.9	0.2	0.2
0.656	6.6085	6.6329	3.3091	1.4	1.4	0.9	0.9	0.2	0.2
0.657	6.5868	6.6097	3.2578	1.4	1.4	0.9	0.9	0.2	0.2
0.658	6.5637	6.5854	3.2027	1.4	1.4	0.9	0.9	0.2	0.2
0.659	6.5395	6.5593	3.1437	1.4	1.4	0.9	0.9	0.2	0.2
0.66	6.5113	6.5289	3.0764	1.4	1.4	0.9	0.9	0.2	0.2
0.661	6.4803	6.4951	3.0018	1.4	1.4	0.9	0.9	0.2	0.2
0.662	6.4456	6.4569	2.9198	1.4	1.4	0.9	0.9	0.2	0.2
0.663	6.4091	6.4165	2.8328	1.4	1.4	0.9	0.9	0.2	0.2
0.664	6.3729	6.3765	2.7447	1.4	1.4	0.9	0.9	0.2	0.2
0.665	6.3359	6.3353	2.6551	1.4	1.4	0.9	0.9	0.2	0.2
0.666	6.2975	6.2921	2.5623	1.4	1.4	0.9	0.9	0.2	0.2
0.667	6.2622	6.2523	2.4729	1.4	1.4	0.9	0.9	0.2	0.2
0.668	6.2303	6.2152	2.3878	1.4	1.4	0.9	0.9	0.2	0.2
0.669	6.2044	6.1835	2.3107	1.4	1.4	0.9	0.9	0.2	0.2
0.67	6.1868	6.1598	2.245	1.4	1.4	0.9	0.9	0.2	0.2
0.671	6.1737	6.1406	2.1852	1.4	1.4	0.9	0.9	0.2	0.2
0.672	6.167	6.1267	2.1332	1.4	1.4	0.9	0.9	0.2	0.2
0.673	6.1669	6.1191	2.0898	1.4	1.4	0.9	0.9	0.2	0.2
0.674	6.1704	6.115	2.0509	1.4	1.4	0.9	0.9	0.2	0.2
0.675	6.1787	6.114	2.0172	1.4	1.4	0.9	0.9	0.2	0.2
0.676	6.1955	6.1207	1.9922	1.4	1.4	0.9	0.9	0.2	0.2
0.677	6.2174	6.1321	1.972	1.4	1.4	0.9	0.9	0.2	0.2
0.678	6.2419	6.1462	1.9546	1.4	1.4	0.9	0.9	0.2	0.2
0.679	6.2707	6.1642	1.9419	1.4	1.4	0.9	0.9	0.2	0.2
0.68	6.3029	6.1851	1.9331	1.4	1.4	0.9	0.9	0.2	0.2
0.681	6.3416	6.2131	1.9347	1.4	1.4	0.9	0.9	0.2	0.2
0.682	6.3861	6.2475	1.9463	1.4	1.4	0.9	0.9	0.2	0.2
0.683	6.4399	6.2916	1.9742	1.4	1.4	0.9	0.9	0.2	0.2
0.684	6.5032	6.3463	2.0225	1.4	1.4	0.9	0.9	0.2	0.2
0.685	6.5745	6.41	2.0926	1.4	1.4	0.9	0.9	0.2	0.2
0.686	6.6538	6.4837	2.1865	1.4	1.4	0.9	0.9	0.2	0.2
0.687	6.743	6.57	2.3113	1.4	1.4	0.9	0.9	0.2	0.2
0.688	6.8444	6.67	2.4724	1.4	1.4	0.9	0.9	0.2	0.2
0.689	6.9585	6.7844	2.6724	1.4	1.4	0.9	0.9	0.2	0.2
0.69	7.0901	6.9193	2.9214	1.4	1.4	0.9	0.9	0.2	0.2
0.691	7.2388	7.0738	3.2226	1.4	1.4	0.9	0.9	0.2	0.2
0.692	7.4093	7.2517	3.5831	1.4	1.4	0.9	0.9	0.2	0.2
0.693	7.6072	7.4584	4.0098	1.4	1.4	0.9	0.9	0.2	0.2
0.694	7.8356	7.697	4.5059	1.4	1.4	0.9	0.9	0.2	0.2
0.695	8.098	7.9705	5.0738	1.4	1.4	0.9	0.9	0.2	0.2
0.696	8.3975	8.281	5.7121	1.4	1.4	0.9	0.9	0.2	0.2
0.697	8.7405	8.6346	6.4237	1.4	1.4	0.9	0.9	0.2	0.2
0.698	9.1264	9.031	7.2022	1.4	1.4	0.9	0.9	0.2	0.2
0.699	9.5564	9.4712	8.0419	1.4	1.4	0.9	0.9	0.2	0.2
0.7	10.029	9.9543	8.9322	1.4	1.4	0.9	0.9	0.2	0.2
0.701	10.5412	10.4769	9.8639	1.4	1.4	0.9	0.9	0.2	0.2
0.702	11.0881	11.0348	10.8255	1.4	1.4	0.9	0.9	0.2	0.2
0.703	11.6642	11.6225	11.8043	1.4	1.4	0.9	0.9	0.2	0.2
0.704	12.2657	12.2369	12.7942	1.4	1.4	0.9	0.9	0.2	0.2
0.705	12.8859	12.8708	13.7848	1.4	1.4	0.9	0.9	0.2	0.2
0.706	13.5178	13.5163	14.7649	1.4	1.4	0.9	0.9	0.2	0.2
0.707	14.1579	14.17	15.7299	1.4	1.4	0.9	0.9	0.2	0.2
0.708	14.8039	14.8292	16.6784	1.4	1.4	0.9	0.9	0.2	0.2
0.709	15.45	15.4886	17.605	1.4	1.4	0.9	0.9	0.2	0.2
0.71	16.0958	16.1466	18.5098	1.4	1.4	0.9	0.9	0.2	0.2
0.711	16.7424	16.8045	19.3959	1.4	1.4	0.9	0.9	0.2	0.2
0.712	17.3876	17.4598	20.2625	1.4	1.4	0.9	0.9	0.2	0.2
0.713	18.0335	18.1147	21.1132	1.4	1.4	0.9	0.9	0.2	0.2
0.714	18.679	18.7684	21.9475	1.4	1.4	0.9	0.9	0.2	0.2
0.715	19.324	19.4213	22.7671	1.4	1.4	0.9	0.9	0.2	0.2
0.716	19.968	20.0731	23.5727	1.4	1.4	0.9	0.9	0.2	0.2
0.717	20.6114	20.7238	24.365	1.4	1.4	0.9	0.9	0.2	0.2
0.718	21.2537	21.3729	25.1442	1.4	1.4	0.9	0.9	0.2	0.2
0.719	21.8934	22.0188	25.9102	1.4	1.4	0.9	0.9	0.2	0.2
0.72	22.53	22.6609	26.6622	1.4	1.4	0.9	0.9	0.2	0.2
0.721	23.1633	23.2993	27.4012	1.4	1.4	0.9	0.9	0.2	0.2
0.722	23.7924	23.9328	28.127	1.4	1.4	0.9	0.9	0.2	0.2
0.723	24.4141	24.5591	28.8372	1.4	1.4	0.9	0.9	0.2	0.2
0.724	25.0288	25.1776	29.5322	1.4	1.4	0.9	0.9	0.2	0.2
0.725	25.6344	25.7859	30.2098	1.4	1.4	0.9	0.9	0.2	0.2
0.726	26.2286	26.3821	30.8689	1.4	1.4	0.9	0.9	0.2	0.2
0.727	26.8112	26.9666	31.5098	1.4	1.4	0.9	0.9	0.2	0.2
0.728	27.3799	27.5369	32.1303	1.4	1.4	0.9	0.9	0.2	0.2
0.729	27.9332	28.0913	32.7293	1.4	1.4	0.9	0.9	0.2	0.2
0.73	28.4696	28.6282	33.3051	1.4	1.4	0.9	0.9	0.2	0.2
0.731	28.9889	29.1474	33.8579	1.4	1.4	0.9	0.9	0.2	0.2
0.732	29.491	29.6491	34.3885	1.4	1.4	0.9	0.9	0.2	0.2
