*Name: Maple bot
Type: Leaf Spectrum
Particle Size: Solid
Wavelength Range: All

Origin: Remote Sensing Laboratories, University of Zurich

Description: abaxial reflectance, adaxial reflectance, and adaxial transmittance measured by ASD Integrating Sphere

Measurement: Hemispherical Conical Reflectance Factor HCRF

First Column:  X Wavelength (micrometers)
Second Column:  Y Reflectance (percent)
First X Value: 0.369
Last X Value: 2.493
Number of X Values: 2125
Additional Information:  None*

*Number of Lambda pertinent values : *  2125
*Lambda_min - Lambda_max : *  0.369 2.493
*Leaf parameters : Upper type of roughness [0/1 : cst/var] - Lower type of roughness* 0 0
*Lambda - Lower reflectance - Upper reflectance - Transmittance - Lower refraction index - Upper refracton index - Lower roughness [0;1] - Upper roughness - Lower roughness index [0.1;0.3] - Upper roughness index *
0.369	1.7659	1.7327	0.18417	1.4	1.4	0.9	0.9	0.2	0.2
0.37	2.0286	1.9911	0.21518	1.4	1.4	0.9	0.9	0.2	0.2
0.371	2.2855	2.2418	0.23635	1.4	1.4	0.9	0.9	0.2	0.2
0.372	2.5436	2.5019	0.26261	1.4	1.4	0.9	0.9	0.2	0.2
0.373	2.7982	2.7609	0.2907	1.4	1.4	0.9	0.9	0.2	0.2
0.374	3.0429	3.0088	0.31272	1.4	1.4	0.9	0.9	0.2	0.2
0.375	3.2642	3.2297	0.30499	1.4	1.4	0.9	0.9	0.2	0.2
0.376	3.4922	3.4587	0.31449	1.4	1.4	0.9	0.9	0.2	0.2
0.377	3.7123	3.6819	0.32925	1.4	1.4	0.9	0.9	0.2	0.2
0.378	3.8931	3.8671	0.31532	1.4	1.4	0.9	0.9	0.2	0.2
0.379	4.0755	4.0498	0.31638	1.4	1.4	0.9	0.9	0.2	0.2
0.38	4.237	4.2113	0.31497	1.4	1.4	0.9	0.9	0.2	0.2
0.381	4.3634	4.34	0.3016	1.4	1.4	0.9	0.9	0.2	0.2
0.382	4.4818	4.4621	0.31084	1.4	1.4	0.9	0.9	0.2	0.2
0.383	4.5713	4.5537	0.31368	1.4	1.4	0.9	0.9	0.2	0.2
0.384	4.6243	4.608	0.30462	1.4	1.4	0.9	0.9	0.2	0.2
0.385	4.6411	4.6292	0.29467	1.4	1.4	0.9	0.9	0.2	0.2
0.386	4.6212	4.6141	0.27992	1.4	1.4	0.9	0.9	0.2	0.2
0.387	4.5711	4.5683	0.27026	1.4	1.4	0.9	0.9	0.2	0.2
0.388	4.4957	4.4968	0.27511	1.4	1.4	0.9	0.9	0.2	0.2
0.389	4.3682	4.3747	0.26718	1.4	1.4	0.9	0.9	0.2	0.2
0.39	4.3947	4.3866	0.27258	1.4	1.4	0.9	0.9	0.2	0.2
0.391	4.4147	4.4122	0.2736	1.4	1.4	0.9	0.9	0.2	0.2
0.392	4.4327	4.4302	0.26828	1.4	1.4	0.9	0.9	0.2	0.2
0.393	4.4596	4.4554	0.27387	1.4	1.4	0.9	0.9	0.2	0.2
0.394	4.4975	4.4939	0.29277	1.4	1.4	0.9	0.9	0.2	0.2
0.395	4.5069	4.5072	0.27338	1.4	1.4	0.9	0.9	0.2	0.2
0.396	4.511	4.5173	0.25536	1.4	1.4	0.9	0.9	0.2	0.2
0.397	4.5196	4.5309	0.24969	1.4	1.4	0.9	0.9	0.2	0.2
0.398	4.5563	4.563	0.27289	1.4	1.4	0.9	0.9	0.2	0.2
0.399	4.5883	4.5938	0.30234	1.4	1.4	0.9	0.9	0.2	0.2
0.4	4.6098	4.6184	0.32588	1.4	1.4	0.9	0.9	0.2	0.2
0.401	4.6233	4.6391	0.33721	1.4	1.4	0.9	0.9	0.2	0.2
0.402	4.6549	4.6694	0.36514	1.4	1.4	0.9	0.9	0.2	0.2
0.403	4.6825	4.6915	0.38653	1.4	1.4	0.9	0.9	0.2	0.2
0.404	4.6986	4.7017	0.39362	1.4	1.4	0.9	0.9	0.2	0.2
0.405	4.7213	4.7238	0.40872	1.4	1.4	0.9	0.9	0.2	0.2
0.406	4.7334	4.7345	0.41097	1.4	1.4	0.9	0.9	0.2	0.2
0.407	4.7434	4.7447	0.41109	1.4	1.4	0.9	0.9	0.2	0.2
0.408	4.7619	4.7686	0.42246	1.4	1.4	0.9	0.9	0.2	0.2
0.409	4.777	4.7817	0.42643	1.4	1.4	0.9	0.9	0.2	0.2
0.41	4.7878	4.7864	0.41913	1.4	1.4	0.9	0.9	0.2	0.2
0.411	4.7994	4.7918	0.40804	1.4	1.4	0.9	0.9	0.2	0.2
0.412	4.8324	4.8222	0.42962	1.4	1.4	0.9	0.9	0.2	0.2
0.413	4.8506	4.8372	0.43641	1.4	1.4	0.9	0.9	0.2	0.2
0.414	4.8593	4.8405	0.43146	1.4	1.4	0.9	0.9	0.2	0.2
0.415	4.8919	4.8656	0.45251	1.4	1.4	0.9	0.9	0.2	0.2
0.416	4.9101	4.8797	0.46423	1.4	1.4	0.9	0.9	0.2	0.2
0.417	4.9294	4.8955	0.48033	1.4	1.4	0.9	0.9	0.2	0.2
0.418	4.9648	4.9253	0.5134	1.4	1.4	0.9	0.9	0.2	0.2
0.419	4.9838	4.9373	0.52357	1.4	1.4	0.9	0.9	0.2	0.2
0.42	5.0018	4.9499	0.53614	1.4	1.4	0.9	0.9	0.2	0.2
0.421	5.0253	4.9701	0.55976	1.4	1.4	0.9	0.9	0.2	0.2
0.422	5.0525	4.9919	0.58442	1.4	1.4	0.9	0.9	0.2	0.2
0.423	5.0859	5.0199	0.61687	1.4	1.4	0.9	0.9	0.2	0.2
0.424	5.1153	5.0453	0.64658	1.4	1.4	0.9	0.9	0.2	0.2
0.425	5.1262	5.0546	0.65702	1.4	1.4	0.9	0.9	0.2	0.2
0.426	5.1396	5.0658	0.67141	1.4	1.4	0.9	0.9	0.2	0.2
0.427	5.1576	5.0815	0.69169	1.4	1.4	0.9	0.9	0.2	0.2
0.428	5.1801	5.1015	0.71703	1.4	1.4	0.9	0.9	0.2	0.2
0.429	5.1983	5.1179	0.7383	1.4	1.4	0.9	0.9	0.2	0.2
0.43	5.2109	5.1283	0.75243	1.4	1.4	0.9	0.9	0.2	0.2
0.431	5.2214	5.1362	0.76441	1.4	1.4	0.9	0.9	0.2	0.2
0.432	5.2378	5.1497	0.78675	1.4	1.4	0.9	0.9	0.2	0.2
0.433	5.246	5.1557	0.79956	1.4	1.4	0.9	0.9	0.2	0.2
0.434	5.2511	5.1595	0.80895	1.4	1.4	0.9	0.9	0.2	0.2
0.435	5.26	5.1678	0.82359	1.4	1.4	0.9	0.9	0.2	0.2
0.436	5.2706	5.1758	0.83966	1.4	1.4	0.9	0.9	0.2	0.2
0.437	5.2818	5.1841	0.8565	1.4	1.4	0.9	0.9	0.2	0.2
0.438	5.2927	5.1927	0.87349	1.4	1.4	0.9	0.9	0.2	0.2
0.439	5.3021	5.2007	0.88957	1.4	1.4	0.9	0.9	0.2	0.2
0.44	5.3103	5.2073	0.90465	1.4	1.4	0.9	0.9	0.2	0.2
0.441	5.3176	5.2125	0.91925	1.4	1.4	0.9	0.9	0.2	0.2
0.442	5.3241	5.2168	0.93406	1.4	1.4	0.9	0.9	0.2	0.2
0.443	5.3352	5.2272	0.9574	1.4	1.4	0.9	0.9	0.2	0.2
0.444	5.3468	5.2384	0.98303	1.4	1.4	0.9	0.9	0.2	0.2
0.445	5.3553	5.2456	1.0048	1.4	1.4	0.9	0.9	0.2	0.2
0.446	5.3651	5.2549	1.0291	1.4	1.4	0.9	0.9	0.2	0.2
0.447	5.3758	5.2658	1.0557	1.4	1.4	0.9	0.9	0.2	0.2
0.448	5.3858	5.2763	1.0825	1.4	1.4	0.9	0.9	0.2	0.2
0.449	5.3928	5.2826	1.1058	1.4	1.4	0.9	0.9	0.2	0.2
0.45	5.3754	5.2645	1.0868	1.4	1.4	0.9	0.9	0.2	0.2
0.451	5.3857	5.2732	1.1181	1.4	1.4	0.9	0.9	0.2	0.2
0.452	5.4034	5.2906	1.1596	1.4	1.4	0.9	0.9	0.2	0.2
0.453	5.4252	5.3123	1.2037	1.4	1.4	0.9	0.9	0.2	0.2
0.454	5.4397	5.3274	1.2435	1.4	1.4	0.9	0.9	0.2	0.2
0.455	5.4469	5.3354	1.2774	1.4	1.4	0.9	0.9	0.2	0.2
0.456	5.4525	5.342	1.3059	1.4	1.4	0.9	0.9	0.2	0.2
0.457	5.4631	5.3539	1.3384	1.4	1.4	0.9	0.9	0.2	0.2
0.458	5.4676	5.3579	1.3593	1.4	1.4	0.9	0.9	0.2	0.2
0.459	5.468	5.3572	1.3716	1.4	1.4	0.9	0.9	0.2	0.2
0.46	5.4717	5.3571	1.3835	1.4	1.4	0.9	0.9	0.2	0.2
0.461	5.475	5.3568	1.3937	1.4	1.4	0.9	0.9	0.2	0.2
0.462	5.4713	5.3514	1.3972	1.4	1.4	0.9	0.9	0.2	0.2
0.463	5.4693	5.3467	1.4025	1.4	1.4	0.9	0.9	0.2	0.2
0.464	5.464	5.3406	1.406	1.4	1.4	0.9	0.9	0.2	0.2
0.465	5.4609	5.3372	1.4139	1.4	1.4	0.9	0.9	0.2	0.2
0.466	5.4621	5.3386	1.4242	1.4	1.4	0.9	0.9	0.2	0.2
0.467	5.468	5.3465	1.4371	1.4	1.4	0.9	0.9	0.2	0.2
0.468	5.47	5.3503	1.4484	1.4	1.4	0.9	0.9	0.2	0.2
0.469	5.4705	5.3495	1.4552	1.4	1.4	0.9	0.9	0.2	0.2
0.47	5.4712	5.348	1.4596	1.4	1.4	0.9	0.9	0.2	0.2
0.471	5.4761	5.3514	1.4708	1.4	1.4	0.9	0.9	0.2	0.2
0.472	5.4772	5.3511	1.4766	1.4	1.4	0.9	0.9	0.2	0.2
0.473	5.4776	5.3486	1.4809	1.4	1.4	0.9	0.9	0.2	0.2
0.474	5.4762	5.3449	1.4826	1.4	1.4	0.9	0.9	0.2	0.2
0.475	5.473	5.3431	1.485	1.4	1.4	0.9	0.9	0.2	0.2
0.476	5.4775	5.3488	1.4983	1.4	1.4	0.9	0.9	0.2	0.2
0.477	5.4834	5.354	1.5111	1.4	1.4	0.9	0.9	0.2	0.2
0.478	5.4813	5.3533	1.5172	1.4	1.4	0.9	0.9	0.2	0.2
0.479	5.479	5.3533	1.5244	1.4	1.4	0.9	0.9	0.2	0.2
0.48	5.4811	5.3581	1.5347	1.4	1.4	0.9	0.9	0.2	0.2
0.481	5.4851	5.3641	1.547	1.4	1.4	0.9	0.9	0.2	0.2
0.482	5.485	5.3636	1.5562	1.4	1.4	0.9	0.9	0.2	0.2
0.483	5.4815	5.3593	1.5645	1.4	1.4	0.9	0.9	0.2	0.2
0.484	5.482	5.3591	1.5744	1.4	1.4	0.9	0.9	0.2	0.2
0.485	5.4872	5.3635	1.5883	1.4	1.4	0.9	0.9	0.2	0.2
0.486	5.4908	5.3661	1.6019	1.4	1.4	0.9	0.9	0.2	0.2
0.487	5.4968	5.3703	1.6174	1.4	1.4	0.9	0.9	0.2	0.2
0.488	5.5008	5.373	1.6304	1.4	1.4	0.9	0.9	0.2	0.2
0.489	5.5086	5.3781	1.6486	1.4	1.4	0.9	0.9	0.2	0.2
0.49	5.5281	5.3951	1.6807	1.4	1.4	0.9	0.9	0.2	0.2
0.491	5.543	5.4074	1.7076	1.4	1.4	0.9	0.9	0.2	0.2
0.492	5.5541	5.4164	1.7354	1.4	1.4	0.9	0.9	0.2	0.2
0.493	5.5672	5.4293	1.7698	1.4	1.4	0.9	0.9	0.2	0.2
0.494	5.5855	5.4472	1.8123	1.4	1.4	0.9	0.9	0.2	0.2
0.495	5.6065	5.468	1.8631	1.4	1.4	0.9	0.9	0.2	0.2
0.496	5.6299	5.4931	1.9227	1.4	1.4	0.9	0.9	0.2	0.2
0.497	5.6539	5.519	1.986	1.4	1.4	0.9	0.9	0.2	0.2
0.498	5.6832	5.5485	2.0552	1.4	1.4	0.9	0.9	0.2	0.2
0.499	5.7151	5.5802	2.132	1.4	1.4	0.9	0.9	0.2	0.2
0.5	5.7491	5.6131	2.2169	1.4	1.4	0.9	0.9	0.2	0.2
0.501	5.7889	5.6513	2.3122	1.4	1.4	0.9	0.9	0.2	0.2
0.502	5.8299	5.6905	2.414	1.4	1.4	0.9	0.9	0.2	0.2
0.503	5.8785	5.7356	2.5275	1.4	1.4	0.9	0.9	0.2	0.2
0.504	5.9365	5.7914	2.6574	1.4	1.4	0.9	0.9	0.2	0.2
0.505	5.9919	5.8449	2.7923	1.4	1.4	0.9	0.9	0.2	0.2
0.506	6.0472	5.8992	2.935	1.4	1.4	0.9	0.9	0.2	0.2
0.507	6.1105	5.9615	3.0945	1.4	1.4	0.9	0.9	0.2	0.2
0.508	6.1818	6.031	3.2713	1.4	1.4	0.9	0.9	0.2	0.2
0.509	6.2601	6.1089	3.4647	1.4	1.4	0.9	0.9	0.2	0.2
0.51	6.3397	6.1901	3.6702	1.4	1.4	0.9	0.9	0.2	0.2
0.511	6.4234	6.2739	3.8879	1.4	1.4	0.9	0.9	0.2	0.2
0.512	6.5172	6.3663	4.125	1.4	1.4	0.9	0.9	0.2	0.2
0.513	6.6224	6.4699	4.3849	1.4	1.4	0.9	0.9	0.2	0.2
0.514	6.7351	6.5803	4.6612	1.4	1.4	0.9	0.9	0.2	0.2
0.515	6.8542	6.6975	4.9521	1.4	1.4	0.9	0.9	0.2	0.2
0.516	6.9836	6.8243	5.2609	1.4	1.4	0.9	0.9	0.2	0.2
0.517	7.1269	6.9637	5.5895	1.4	1.4	0.9	0.9	0.2	0.2
0.518	7.2772	7.1109	5.9317	1.4	1.4	0.9	0.9	0.2	0.2
0.519	7.4292	7.2596	6.2795	1.4	1.4	0.9	0.9	0.2	0.2
0.52	7.5884	7.4152	6.637	1.4	1.4	0.9	0.9	0.2	0.2
0.521	7.7565	7.579	7.0043	1.4	1.4	0.9	0.9	0.2	0.2
0.522	7.9291	7.748	7.3752	1.4	1.4	0.9	0.9	0.2	0.2
0.523	8.1035	7.9188	7.7446	1.4	1.4	0.9	0.9	0.2	0.2
0.524	8.2765	8.0877	8.1091	1.4	1.4	0.9	0.9	0.2	0.2
0.525	8.4519	8.2581	8.4693	1.4	1.4	0.9	0.9	0.2	0.2
0.526	8.6274	8.4282	8.8219	1.4	1.4	0.9	0.9	0.2	0.2
0.527	8.799	8.5959	9.1639	1.4	1.4	0.9	0.9	0.2	0.2
0.528	8.9634	8.7567	9.4887	1.4	1.4	0.9	0.9	0.2	0.2
0.529	9.1222	8.9116	9.7972	1.4	1.4	0.9	0.9	0.2	0.2
0.53	9.2758	9.061	10.0915	1.4	1.4	0.9	0.9	0.2	0.2
0.531	9.4218	9.2027	10.3678	1.4	1.4	0.9	0.9	0.2	0.2
0.532	9.5558	9.3318	10.6206	1.4	1.4	0.9	0.9	0.2	0.2
0.533	9.6771	9.448	10.8499	1.4	1.4	0.9	0.9	0.2	0.2
0.534	9.7905	9.5574	11.062	1.4	1.4	0.9	0.9	0.2	0.2
0.535	9.8916	9.6555	11.2524	1.4	1.4	0.9	0.9	0.2	0.2
0.536	9.9792	9.7402	11.4203	1.4	1.4	0.9	0.9	0.2	0.2
0.537	10.0556	9.8132	11.568	1.4	1.4	0.9	0.9	0.2	0.2
0.538	10.1216	9.8767	11.6981	1.4	1.4	0.9	0.9	0.2	0.2
0.539	10.1768	9.9303	11.8114	1.4	1.4	0.9	0.9	0.2	0.2
0.54	10.2212	9.974	11.9086	1.4	1.4	0.9	0.9	0.2	0.2
0.541	10.2574	10.0108	11.993	1.4	1.4	0.9	0.9	0.2	0.2
0.542	10.2893	10.0449	12.0688	1.4	1.4	0.9	0.9	0.2	0.2
0.543	10.3183	10.0755	12.1378	1.4	1.4	0.9	0.9	0.2	0.2
0.544	10.3463	10.104	12.204	1.4	1.4	0.9	0.9	0.2	0.2
0.545	10.3754	10.1331	12.2696	1.4	1.4	0.9	0.9	0.2	0.2
0.546	10.4031	10.1612	12.3326	1.4	1.4	0.9	0.9	0.2	0.2
0.547	10.4304	10.1896	12.3955	1.4	1.4	0.9	0.9	0.2	0.2
0.548	10.4576	10.2181	12.4581	1.4	1.4	0.9	0.9	0.2	0.2
0.549	10.4846	10.2465	12.5206	1.4	1.4	0.9	0.9	0.2	0.2
0.55	10.5105	10.2733	12.5819	1.4	1.4	0.9	0.9	0.2	0.2
0.551	10.5345	10.2984	12.6395	1.4	1.4	0.9	0.9	0.2	0.2
0.552	10.5545	10.3198	12.6908	1.4	1.4	0.9	0.9	0.2	0.2
0.553	10.5672	10.3343	12.7321	1.4	1.4	0.9	0.9	0.2	0.2
0.554	10.5725	10.3411	12.7615	1.4	1.4	0.9	0.9	0.2	0.2
0.555	10.5716	10.3416	12.779	1.4	1.4	0.9	0.9	0.2	0.2
0.556	10.5612	10.3334	12.7814	1.4	1.4	0.9	0.9	0.2	0.2
0.557	10.5398	10.3132	12.7668	1.4	1.4	0.9	0.9	0.2	0.2
0.558	10.5109	10.2845	12.7376	1.4	1.4	0.9	0.9	0.2	0.2
0.559	10.4719	10.246	12.6912	1.4	1.4	0.9	0.9	0.2	0.2
0.56	10.42	10.1952	12.6253	1.4	1.4	0.9	0.9	0.2	0.2
0.561	10.3589	10.1351	12.5435	1.4	1.4	0.9	0.9	0.2	0.2
0.562	10.2901	10.0679	12.4473	1.4	1.4	0.9	0.9	0.2	0.2
0.563	10.2142	9.9942	12.338	1.4	1.4	0.9	0.9	0.2	0.2
0.564	10.1313	9.9135	12.2153	1.4	1.4	0.9	0.9	0.2	0.2
0.565	10.0396	9.8248	12.0768	1.4	1.4	0.9	0.9	0.2	0.2
0.566	9.9405	9.7288	11.9249	1.4	1.4	0.9	0.9	0.2	0.2
0.567	9.8346	9.626	11.7602	1.4	1.4	0.9	0.9	0.2	0.2
0.568	9.7233	9.5169	11.5829	1.4	1.4	0.9	0.9	0.2	0.2
0.569	9.6084	9.4038	11.3953	1.4	1.4	0.9	0.9	0.2	0.2
0.57	9.4884	9.2856	11.1973	1.4	1.4	0.9	0.9	0.2	0.2
0.571	9.367	9.165	10.9926	1.4	1.4	0.9	0.9	0.2	0.2
0.572	9.2452	9.0431	10.783	1.4	1.4	0.9	0.9	0.2	0.2
0.573	9.1228	8.9203	10.5699	1.4	1.4	0.9	0.9	0.2	0.2
0.574	9.0031	8.7994	10.3582	1.4	1.4	0.9	0.9	0.2	0.2
0.575	8.8882	8.6831	10.152	1.4	1.4	0.9	0.9	0.2	0.2
0.576	8.7794	8.5739	9.9538	1.4	1.4	0.9	0.9	0.2	0.2
0.577	8.6771	8.4715	9.7648	1.4	1.4	0.9	0.9	0.2	0.2
0.578	8.5795	8.374	9.5831	1.4	1.4	0.9	0.9	0.2	0.2
0.579	8.4845	8.2805	9.4076	1.4	1.4	0.9	0.9	0.2	0.2
0.58	8.3956	8.1932	9.2428	1.4	1.4	0.9	0.9	0.2	0.2
0.581	8.3156	8.1144	9.0905	1.4	1.4	0.9	0.9	0.2	0.2
0.582	8.2396	8.0392	8.9465	1.4	1.4	0.9	0.9	0.2	0.2
0.583	8.1675	7.9683	8.8107	1.4	1.4	0.9	0.9	0.2	0.2
0.584	8.1	7.9021	8.6824	1.4	1.4	0.9	0.9	0.2	0.2
0.585	8.037	7.8398	8.5615	1.4	1.4	0.9	0.9	0.2	0.2
0.586	7.9786	7.7817	8.4486	1.4	1.4	0.9	0.9	0.2	0.2
0.587	7.9255	7.7284	8.3445	1.4	1.4	0.9	0.9	0.2	0.2
0.588	7.8721	7.6747	8.2441	1.4	1.4	0.9	0.9	0.2	0.2
0.589	7.8231	7.6254	8.1521	1.4	1.4	0.9	0.9	0.2	0.2
0.59	7.7804	7.5823	8.0701	1.4	1.4	0.9	0.9	0.2	0.2
0.591	7.7421	7.5442	7.9965	1.4	1.4	0.9	0.9	0.2	0.2
0.592	7.7065	7.5085	7.9287	1.4	1.4	0.9	0.9	0.2	0.2
0.593	7.674	7.4763	7.8673	1.4	1.4	0.9	0.9	0.2	0.2
0.594	7.6472	7.45	7.8145	1.4	1.4	0.9	0.9	0.2	0.2
0.595	7.6267	7.429	7.7715	1.4	1.4	0.9	0.9	0.2	0.2
0.596	7.6063	7.4077	7.7323	1.4	1.4	0.9	0.9	0.2	0.2
0.597	7.5869	7.3875	7.6958	1.4	1.4	0.9	0.9	0.2	0.2
0.598	7.5674	7.3682	7.6599	1.4	1.4	0.9	0.9	0.2	0.2
0.599	7.5488	7.3501	7.6261	1.4	1.4	0.9	0.9	0.2	0.2
0.6	7.5312	7.3329	7.5941	1.4	1.4	0.9	0.9	0.2	0.2
0.601	7.5112	7.3127	7.559	1.4	1.4	0.9	0.9	0.2	0.2
0.602	7.4862	7.2877	7.5176	1.4	1.4	0.9	0.9	0.2	0.2
0.603	7.4628	7.2644	7.4758	1.4	1.4	0.9	0.9	0.2	0.2
0.604	7.4399	7.2411	7.4325	1.4	1.4	0.9	0.9	0.2	0.2
0.605	7.4153	7.2166	7.3852	1.4	1.4	0.9	0.9	0.2	0.2
0.606	7.3882	7.1893	7.3315	1.4	1.4	0.9	0.9	0.2	0.2
0.607	7.3579	7.1586	7.2699	1.4	1.4	0.9	0.9	0.2	0.2
0.608	7.3254	7.1263	7.2031	1.4	1.4	0.9	0.9	0.2	0.2
0.609	7.2917	7.0926	7.1324	1.4	1.4	0.9	0.9	0.2	0.2
0.61	7.2567	7.0577	7.0568	1.4	1.4	0.9	0.9	0.2	0.2
0.611	7.2177	7.0189	6.9733	1.4	1.4	0.9	0.9	0.2	0.2
0.612	7.1761	6.9785	6.8843	1.4	1.4	0.9	0.9	0.2	0.2
0.613	7.1354	6.9387	6.7942	1.4	1.4	0.9	0.9	0.2	0.2
0.614	7.0942	6.8982	6.7013	1.4	1.4	0.9	0.9	0.2	0.2
0.615	7.052	6.8561	6.6055	1.4	1.4	0.9	0.9	0.2	0.2
0.616	7.0105	6.8152	6.5102	1.4	1.4	0.9	0.9	0.2	0.2
0.617	6.9713	6.7769	6.4186	1.4	1.4	0.9	0.9	0.2	0.2
0.618	6.9333	6.7394	6.3294	1.4	1.4	0.9	0.9	0.2	0.2
0.619	6.8965	6.7034	6.2434	1.4	1.4	0.9	0.9	0.2	0.2
0.62	6.8628	6.6696	6.163	1.4	1.4	0.9	0.9	0.2	0.2
0.621	6.8288	6.6358	6.0858	1.4	1.4	0.9	0.9	0.2	0.2
0.622	6.7975	6.6053	6.016	1.4	1.4	0.9	0.9	0.2	0.2
0.623	6.7711	6.5792	5.9551	1.4	1.4	0.9	0.9	0.2	0.2
0.624	6.7492	6.5571	5.9027	1.4	1.4	0.9	0.9	0.2	0.2
0.625	6.7299	6.5369	5.8567	1.4	1.4	0.9	0.9	0.2	0.2
0.626	6.7142	6.5208	5.8189	1.4	1.4	0.9	0.9	0.2	0.2
0.627	6.7003	6.5071	5.7874	1.4	1.4	0.9	0.9	0.2	0.2
0.628	6.6869	6.4944	5.7604	1.4	1.4	0.9	0.9	0.2	0.2
0.629	6.6756	6.4835	5.739	1.4	1.4	0.9	0.9	0.2	0.2
0.63	6.6683	6.476	5.7246	1.4	1.4	0.9	0.9	0.2	0.2
0.631	6.664	6.4719	5.7151	1.4	1.4	0.9	0.9	0.2	0.2
0.632	6.6588	6.4668	5.7038	1.4	1.4	0.9	0.9	0.2	0.2
0.633	6.6509	6.4582	5.6884	1.4	1.4	0.9	0.9	0.2	0.2
0.634	6.6411	6.4476	5.668	1.4	1.4	0.9	0.9	0.2	0.2
0.635	6.625	6.4315	5.6364	1.4	1.4	0.9	0.9	0.2	0.2
0.636	6.6043	6.4106	5.5932	1.4	1.4	0.9	0.9	0.2	0.2
0.637	6.5799	6.3855	5.5386	1.4	1.4	0.9	0.9	0.2	0.2
0.638	6.5511	6.3558	5.4706	1.4	1.4	0.9	0.9	0.2	0.2
0.639	6.5172	6.3218	5.3878	1.4	1.4	0.9	0.9	0.2	0.2
0.64	6.4764	6.2817	5.2893	1.4	1.4	0.9	0.9	0.2	0.2
0.641	6.4302	6.2364	5.1771	1.4	1.4	0.9	0.9	0.2	0.2
0.642	6.3812	6.188	5.0549	1.4	1.4	0.9	0.9	0.2	0.2
0.643	6.3312	6.1386	4.9259	1.4	1.4	0.9	0.9	0.2	0.2
0.644	6.282	6.0893	4.7932	1.4	1.4	0.9	0.9	0.2	0.2
0.645	6.2324	6.0399	4.6573	1.4	1.4	0.9	0.9	0.2	0.2
0.646	6.1815	5.9891	4.519	1.4	1.4	0.9	0.9	0.2	0.2
0.647	6.1313	5.9393	4.3825	1.4	1.4	0.9	0.9	0.2	0.2
0.648	6.085	5.8937	4.2529	1.4	1.4	0.9	0.9	0.2	0.2
0.649	6.0416	5.8505	4.1305	1.4	1.4	0.9	0.9	0.2	0.2
0.65	6.0036	5.8122	4.0194	1.4	1.4	0.9	0.9	0.2	0.2
0.651	5.971	5.7792	3.9207	1.4	1.4	0.9	0.9	0.2	0.2
0.652	5.9428	5.7509	3.8327	1.4	1.4	0.9	0.9	0.2	0.2
0.653	5.9197	5.7282	3.7568	1.4	1.4	0.9	0.9	0.2	0.2
0.654	5.899	5.7081	3.6893	1.4	1.4	0.9	0.9	0.2	0.2
0.655	5.8818	5.6914	3.6292	1.4	1.4	0.9	0.9	0.2	0.2
0.656	5.8687	5.6781	3.5753	1.4	1.4	0.9	0.9	0.2	0.2
0.657	5.8557	5.6646	3.5213	1.4	1.4	0.9	0.9	0.2	0.2
0.658	5.8416	5.6497	3.4639	1.4	1.4	0.9	0.9	0.2	0.2
0.659	5.8262	5.6341	3.4016	1.4	1.4	0.9	0.9	0.2	0.2
0.66	5.809	5.6164	3.3315	1.4	1.4	0.9	0.9	0.2	0.2
0.661	5.7899	5.597	3.2532	1.4	1.4	0.9	0.9	0.2	0.2
0.662	5.7677	5.5741	3.1657	1.4	1.4	0.9	0.9	0.2	0.2
0.663	5.7448	5.5498	3.0719	1.4	1.4	0.9	0.9	0.2	0.2
0.664	5.7227	5.5261	2.9744	1.4	1.4	0.9	0.9	0.2	0.2
0.665	5.7002	5.5017	2.8733	1.4	1.4	0.9	0.9	0.2	0.2
0.666	5.6772	5.4765	2.7701	1.4	1.4	0.9	0.9	0.2	0.2
0.667	5.6574	5.4542	2.6703	1.4	1.4	0.9	0.9	0.2	0.2
0.668	5.6406	5.4347	2.5747	1.4	1.4	0.9	0.9	0.2	0.2
0.669	5.6285	5.4196	2.4863	1.4	1.4	0.9	0.9	0.2	0.2
0.67	5.6238	5.4102	2.4073	1.4	1.4	0.9	0.9	0.2	0.2
0.671	5.6238	5.4047	2.3358	1.4	1.4	0.9	0.9	0.2	0.2
0.672	5.6291	5.4044	2.2736	1.4	1.4	0.9	0.9	0.2	0.2
0.673	5.6401	5.4095	2.221	1.4	1.4	0.9	0.9	0.2	0.2
0.674	5.6562	5.4185	2.1756	1.4	1.4	0.9	0.9	0.2	0.2
0.675	5.677	5.4317	2.1367	1.4	1.4	0.9	0.9	0.2	0.2
0.676	5.7044	5.4515	2.1064	1.4	1.4	0.9	0.9	0.2	0.2
0.677	5.7375	5.4768	2.0832	1.4	1.4	0.9	0.9	0.2	0.2
0.678	5.7745	5.5055	2.0655	1.4	1.4	0.9	0.9	0.2	0.2
0.679	5.8167	5.5384	2.0541	1.4	1.4	0.9	0.9	0.2	0.2
0.68	5.863	5.5746	2.0496	1.4	1.4	0.9	0.9	0.2	0.2
0.681	5.9158	5.6169	2.0567	1.4	1.4	0.9	0.9	0.2	0.2
0.682	5.975	5.6655	2.0766	1.4	1.4	0.9	0.9	0.2	0.2
0.683	6.0422	5.7221	2.1151	1.4	1.4	0.9	0.9	0.2	0.2
0.684	6.1177	5.7866	2.1773	1.4	1.4	0.9	0.9	0.2	0.2
0.685	6.1994	5.8578	2.2666	1.4	1.4	0.9	0.9	0.2	0.2
0.686	6.2864	5.9356	2.3874	1.4	1.4	0.9	0.9	0.2	0.2
0.687	6.3807	6.0218	2.5482	1.4	1.4	0.9	0.9	0.2	0.2
0.688	6.4848	6.119	2.7574	1.4	1.4	0.9	0.9	0.2	0.2
0.689	6.6	6.2293	3.0206	1.4	1.4	0.9	0.9	0.2	0.2
0.69	6.7306	6.3568	3.3488	1.4	1.4	0.9	0.9	0.2	0.2
0.691	6.8794	6.5038	3.7488	1.4	1.4	0.9	0.9	0.2	0.2
0.692	7.0517	6.6752	4.2271	1.4	1.4	0.9	0.9	0.2	0.2
0.693	7.254	6.8766	4.7895	1.4	1.4	0.9	0.9	0.2	0.2
0.694	7.4918	7.1131	5.4388	1.4	1.4	0.9	0.9	0.2	0.2
0.695	7.7702	7.3901	6.1748	1.4	1.4	0.9	0.9	0.2	0.2
0.696	8.0924	7.7105	6.9927	1.4	1.4	0.9	0.9	0.2	0.2
0.697	8.4636	8.0794	7.8897	1.4	1.4	0.9	0.9	0.2	0.2
0.698	8.8843	8.4969	8.8556	1.4	1.4	0.9	0.9	0.2	0.2
0.699	9.3544	8.9638	9.8808	1.4	1.4	0.9	0.9	0.2	0.2
0.7	9.8712	9.477	10.9508	1.4	1.4	0.9	0.9	0.2	0.2
0.701	10.431	10.0329	12.0529	1.4	1.4	0.9	0.9	0.2	0.2
0.702	11.0281	10.6266	13.1734	1.4	1.4	0.9	0.9	0.2	0.2
0.703	11.6554	11.2515	14.2982	1.4	1.4	0.9	0.9	0.2	0.2
0.704	12.3071	11.9012	15.4188	1.4	1.4	0.9	0.9	0.2	0.2
0.705	12.9755	12.5678	16.5245	1.4	1.4	0.9	0.9	0.2	0.2
0.706	13.6525	13.2443	17.6063	1.4	1.4	0.9	0.9	0.2	0.2
0.707	14.334	13.9258	18.6599	1.4	1.4	0.9	0.9	0.2	0.2
0.708	15.0168	14.609	19.6831	1.4	1.4	0.9	0.9	0.2	0.2
0.709	15.6955	15.2888	20.6727	1.4	1.4	0.9	0.9	0.2	0.2
0.71	16.3688	15.9637	21.6296	1.4	1.4	0.9	0.9	0.2	0.2
0.711	17.0386	16.6354	22.5573	1.4	1.4	0.9	0.9	0.2	0.2
0.712	17.7034	17.3017	23.4564	1.4	1.4	0.9	0.9	0.2	0.2
0.713	18.365	17.9649	24.3324	1.4	1.4	0.9	0.9	0.2	0.2
0.714	19.0233	18.6245	25.1851	1.4	1.4	0.9	0.9	0.2	0.2
0.715	19.6787	19.2809	26.0175	1.4	1.4	0.9	0.9	0.2	0.2
0.716	20.3316	19.9347	26.8323	1.4	1.4	0.9	0.9	0.2	0.2
0.717	20.9821	20.586	27.6304	1.4	1.4	0.9	0.9	0.2	0.2
0.718	21.6296	21.2341	28.4117	1.4	1.4	0.9	0.9	0.2	0.2
0.719	22.2734	21.8782	29.1769	1.4	1.4	0.9	0.9	0.2	0.2
0.72	22.9123	22.5181	29.9265	1.4	1.4	0.9	0.9	0.2	0.2
0.721	23.5459	23.1527	30.6604	1.4	1.4	0.9	0.9	0.2	0.2
0.722	24.1735	23.7811	31.3784	1.4	1.4	0.9	0.9	0.2	0.2
0.723	24.7927	24.4015	32.0792	1.4	1.4	0.9	0.9	0.2	0.2
0.724	25.4036	25.0136	32.7626	1.4	1.4	0.9	0.9	0.2	0.2
0.725	26.0044	25.6154	33.4266	1.4	1.4	0.9	0.9	0.2	0.2
0.726	26.5932	26.2048	34.0706	1.4	1.4	0.9	0.9	0.2	0.2
0.727	27.1698	26.7823	34.6953	1.4	1.4	0.9	0.9	0.2	0.2
0.728	27.7324	27.3456	35.299	1.4	1.4	0.9	0.9	0.2	0.2
0.729	28.279	27.8923	35.8811	1.4	1.4	0.9	0.9	0.2	0.2
0.73	28.8084	28.4215	36.4404	1.4	1.4	0.9	0.9	0.2	0.2
0.731	29.3199	28.9333	36.9765	1.4	1.4	0.9	0.9	0.2	0.2
0.732	29.8134	29.4271	37.491	1.4	1.4	0.9	0.9	0.2	0.2
