*Name: Understory Vegetation
Type: Understory vegetation 0 to 50 cm
Particle Size: Solid
Wavelength Range: All

Origin: Remote Sensing Laboratories, University of Zurich

Description: linear spectral mix of 90% understory vegetation and 10% moss

Measurement: Hemispherical Conical Reflectance Factor HCRF

First Column:  X Wavelength (micrometers)
Second Column:  Y Reflectance (percent)
First X Value: 0.354
Last X Value: 2.45
Number of X Values: 2097
Additional Information:  None*

*Number of Lambda pertinent values : *  2097
*Lambda_min - Lambda_max : *  0.354 2.45
*Leaf parameters : Upper type of roughness [0/1 : cst/var] - Lower type of roughness* 0 0
*Lambda - Lower reflectance - Upper reflectance - Transmittance - Lower refraction index - Upper refracton index - Lower roughness [0;1] - Upper roughness - Lower roughness index [0.1;0.3] - Upper roughness index *
0.354	1.7936	1.7936	1.1173	1.4	1.4	0.9	0.9	0.2	0.2
0.355	1.799	1.799	1.1207	1.4	1.4	0.9	0.9	0.2	0.2
0.356	1.8051	1.8051	1.1245	1.4	1.4	0.9	0.9	0.2	0.2
0.357	1.8105	1.8105	1.1279	1.4	1.4	0.9	0.9	0.2	0.2
0.358	1.8162	1.8162	1.1314	1.4	1.4	0.9	0.9	0.2	0.2
0.359	1.8222	1.8222	1.1352	1.4	1.4	0.9	0.9	0.2	0.2
0.36	1.8271	1.8271	1.1382	1.4	1.4	0.9	0.9	0.2	0.2
0.361	1.8322	1.8322	1.1414	1.4	1.4	0.9	0.9	0.2	0.2
0.362	1.8378	1.8378	1.1449	1.4	1.4	0.9	0.9	0.2	0.2
0.363	1.8435	1.8435	1.1484	1.4	1.4	0.9	0.9	0.2	0.2
0.364	1.8485	1.8485	1.1515	1.4	1.4	0.9	0.9	0.2	0.2
0.365	1.8534	1.8534	1.1546	1.4	1.4	0.9	0.9	0.2	0.2
0.366	1.8578	1.8578	1.1573	1.4	1.4	0.9	0.9	0.2	0.2
0.367	1.862	1.862	1.16	1.4	1.4	0.9	0.9	0.2	0.2
0.368	1.8677	1.8677	1.1635	1.4	1.4	0.9	0.9	0.2	0.2
0.369	1.8728	1.8728	1.1666	1.4	1.4	0.9	0.9	0.2	0.2
0.37	1.8772	1.8772	1.1694	1.4	1.4	0.9	0.9	0.2	0.2
0.371	1.8851	1.8851	1.1744	1.4	1.4	0.9	0.9	0.2	0.2
0.372	1.8922	1.8922	1.1788	1.4	1.4	0.9	0.9	0.2	0.2
0.373	1.8977	1.8977	1.1822	1.4	1.4	0.9	0.9	0.2	0.2
0.374	1.9048	1.9048	1.1866	1.4	1.4	0.9	0.9	0.2	0.2
0.375	1.9111	1.9111	1.1905	1.4	1.4	0.9	0.9	0.2	0.2
0.376	1.9174	1.9174	1.1945	1.4	1.4	0.9	0.9	0.2	0.2
0.377	1.9253	1.9253	1.1993	1.4	1.4	0.9	0.9	0.2	0.2
0.378	1.9331	1.9331	1.2042	1.4	1.4	0.9	0.9	0.2	0.2
0.379	1.9413	1.9413	1.2093	1.4	1.4	0.9	0.9	0.2	0.2
0.38	1.9512	1.9512	1.2155	1.4	1.4	0.9	0.9	0.2	0.2
0.381	1.9626	1.9626	1.2226	1.4	1.4	0.9	0.9	0.2	0.2
0.382	1.9731	1.9731	1.2292	1.4	1.4	0.9	0.9	0.2	0.2
0.383	1.9833	1.9833	1.2355	1.4	1.4	0.9	0.9	0.2	0.2
0.384	1.9942	1.9942	1.2423	1.4	1.4	0.9	0.9	0.2	0.2
0.385	2.0053	2.0053	1.2492	1.4	1.4	0.9	0.9	0.2	0.2
0.386	2.0161	2.0161	1.2559	1.4	1.4	0.9	0.9	0.2	0.2
0.387	2.0266	2.0266	1.2625	1.4	1.4	0.9	0.9	0.2	0.2
0.388	2.0368	2.0368	1.2689	1.4	1.4	0.9	0.9	0.2	0.2
0.389	2.0477	2.0477	1.2756	1.4	1.4	0.9	0.9	0.2	0.2
0.39	2.0598	2.0598	1.2832	1.4	1.4	0.9	0.9	0.2	0.2
0.391	2.0712	2.0712	1.2903	1.4	1.4	0.9	0.9	0.2	0.2
0.392	2.0798	2.0798	1.2956	1.4	1.4	0.9	0.9	0.2	0.2
0.393	2.0903	2.0903	1.3022	1.4	1.4	0.9	0.9	0.2	0.2
0.394	2.1016	2.1016	1.3092	1.4	1.4	0.9	0.9	0.2	0.2
0.395	2.1122	2.1122	1.3158	1.4	1.4	0.9	0.9	0.2	0.2
0.396	2.1236	2.1236	1.3229	1.4	1.4	0.9	0.9	0.2	0.2
0.397	2.1345	2.1345	1.3297	1.4	1.4	0.9	0.9	0.2	0.2
0.398	2.1449	2.1449	1.3362	1.4	1.4	0.9	0.9	0.2	0.2
0.399	2.1557	2.1557	1.3429	1.4	1.4	0.9	0.9	0.2	0.2
0.4	2.1653	2.1653	1.3488	1.4	1.4	0.9	0.9	0.2	0.2
0.401	2.1747	2.1747	1.3547	1.4	1.4	0.9	0.9	0.2	0.2
0.402	2.1845	2.1845	1.3609	1.4	1.4	0.9	0.9	0.2	0.2
0.403	2.1939	2.1939	1.3667	1.4	1.4	0.9	0.9	0.2	0.2
0.404	2.2036	2.2036	1.3728	1.4	1.4	0.9	0.9	0.2	0.2
0.405	2.2143	2.2143	1.3794	1.4	1.4	0.9	0.9	0.2	0.2
0.406	2.2263	2.2263	1.3869	1.4	1.4	0.9	0.9	0.2	0.2
0.407	2.2396	2.2396	1.3951	1.4	1.4	0.9	0.9	0.2	0.2
0.408	2.2533	2.2533	1.4037	1.4	1.4	0.9	0.9	0.2	0.2
0.409	2.2671	2.2671	1.4123	1.4	1.4	0.9	0.9	0.2	0.2
0.41	2.2812	2.2812	1.4211	1.4	1.4	0.9	0.9	0.2	0.2
0.411	2.2959	2.2959	1.4302	1.4	1.4	0.9	0.9	0.2	0.2
0.412	2.3111	2.3111	1.4397	1.4	1.4	0.9	0.9	0.2	0.2
0.413	2.3269	2.3269	1.4496	1.4	1.4	0.9	0.9	0.2	0.2
0.414	2.3428	2.3428	1.4594	1.4	1.4	0.9	0.9	0.2	0.2
0.415	2.3589	2.3589	1.4695	1.4	1.4	0.9	0.9	0.2	0.2
0.416	2.3756	2.3756	1.4799	1.4	1.4	0.9	0.9	0.2	0.2
0.417	2.3928	2.3928	1.4906	1.4	1.4	0.9	0.9	0.2	0.2
0.418	2.41	2.41	1.5013	1.4	1.4	0.9	0.9	0.2	0.2
0.419	2.4269	2.4269	1.5119	1.4	1.4	0.9	0.9	0.2	0.2
0.42	2.4433	2.4433	1.522	1.4	1.4	0.9	0.9	0.2	0.2
0.421	2.4595	2.4595	1.5322	1.4	1.4	0.9	0.9	0.2	0.2
0.422	2.4756	2.4756	1.5422	1.4	1.4	0.9	0.9	0.2	0.2
0.423	2.4915	2.4915	1.5521	1.4	1.4	0.9	0.9	0.2	0.2
0.424	2.5069	2.5069	1.5617	1.4	1.4	0.9	0.9	0.2	0.2
0.425	2.5224	2.5224	1.5713	1.4	1.4	0.9	0.9	0.2	0.2
0.426	2.5379	2.5379	1.581	1.4	1.4	0.9	0.9	0.2	0.2
0.427	2.5532	2.5532	1.5905	1.4	1.4	0.9	0.9	0.2	0.2
0.428	2.5679	2.5679	1.5997	1.4	1.4	0.9	0.9	0.2	0.2
0.429	2.582	2.582	1.6085	1.4	1.4	0.9	0.9	0.2	0.2
0.43	2.5954	2.5954	1.6168	1.4	1.4	0.9	0.9	0.2	0.2
0.431	2.608	2.608	1.6246	1.4	1.4	0.9	0.9	0.2	0.2
0.432	2.6197	2.6197	1.6319	1.4	1.4	0.9	0.9	0.2	0.2
0.433	2.6305	2.6305	1.6387	1.4	1.4	0.9	0.9	0.2	0.2
0.434	2.6404	2.6404	1.6449	1.4	1.4	0.9	0.9	0.2	0.2
0.435	2.6501	2.6501	1.6509	1.4	1.4	0.9	0.9	0.2	0.2
0.436	2.6595	2.6595	1.6567	1.4	1.4	0.9	0.9	0.2	0.2
0.437	2.6687	2.6687	1.6625	1.4	1.4	0.9	0.9	0.2	0.2
0.438	2.6788	2.6788	1.6688	1.4	1.4	0.9	0.9	0.2	0.2
0.439	2.6888	2.6888	1.675	1.4	1.4	0.9	0.9	0.2	0.2
0.44	2.6992	2.6992	1.6814	1.4	1.4	0.9	0.9	0.2	0.2
0.441	2.7107	2.7107	1.6886	1.4	1.4	0.9	0.9	0.2	0.2
0.442	2.7226	2.7226	1.696	1.4	1.4	0.9	0.9	0.2	0.2
0.443	2.7351	2.7351	1.7038	1.4	1.4	0.9	0.9	0.2	0.2
0.444	2.748	2.748	1.7119	1.4	1.4	0.9	0.9	0.2	0.2
0.445	2.7613	2.7613	1.7202	1.4	1.4	0.9	0.9	0.2	0.2
0.446	2.7751	2.7751	1.7287	1.4	1.4	0.9	0.9	0.2	0.2
0.447	2.7894	2.7894	1.7376	1.4	1.4	0.9	0.9	0.2	0.2
0.448	2.8042	2.8042	1.7469	1.4	1.4	0.9	0.9	0.2	0.2
0.449	2.8193	2.8193	1.7563	1.4	1.4	0.9	0.9	0.2	0.2
0.45	2.8344	2.8344	1.7657	1.4	1.4	0.9	0.9	0.2	0.2
0.451	2.8496	2.8496	1.7751	1.4	1.4	0.9	0.9	0.2	0.2
0.452	2.8648	2.8648	1.7846	1.4	1.4	0.9	0.9	0.2	0.2
0.453	2.8798	2.8798	1.794	1.4	1.4	0.9	0.9	0.2	0.2
0.454	2.8942	2.8942	1.8029	1.4	1.4	0.9	0.9	0.2	0.2
0.455	2.9076	2.9076	1.8113	1.4	1.4	0.9	0.9	0.2	0.2
0.456	2.92	2.92	1.819	1.4	1.4	0.9	0.9	0.2	0.2
0.457	2.9313	2.9313	1.8261	1.4	1.4	0.9	0.9	0.2	0.2
0.458	2.9418	2.9418	1.8326	1.4	1.4	0.9	0.9	0.2	0.2
0.459	2.9509	2.9509	1.8383	1.4	1.4	0.9	0.9	0.2	0.2
0.46	2.9591	2.9591	1.8434	1.4	1.4	0.9	0.9	0.2	0.2
0.461	2.9665	2.9665	1.848	1.4	1.4	0.9	0.9	0.2	0.2
0.462	2.9729	2.9729	1.852	1.4	1.4	0.9	0.9	0.2	0.2
0.463	2.979	2.979	1.8558	1.4	1.4	0.9	0.9	0.2	0.2
0.464	2.9851	2.9851	1.8596	1.4	1.4	0.9	0.9	0.2	0.2
0.465	2.9908	2.9908	1.8631	1.4	1.4	0.9	0.9	0.2	0.2
0.466	2.9961	2.9961	1.8664	1.4	1.4	0.9	0.9	0.2	0.2
0.467	3.0013	3.0013	1.8696	1.4	1.4	0.9	0.9	0.2	0.2
0.468	3.0066	3.0066	1.8729	1.4	1.4	0.9	0.9	0.2	0.2
0.469	3.0117	3.0117	1.8761	1.4	1.4	0.9	0.9	0.2	0.2
0.47	3.0169	3.0169	1.8794	1.4	1.4	0.9	0.9	0.2	0.2
0.471	3.0223	3.0223	1.8827	1.4	1.4	0.9	0.9	0.2	0.2
0.472	3.0275	3.0275	1.886	1.4	1.4	0.9	0.9	0.2	0.2
0.473	3.0335	3.0335	1.8897	1.4	1.4	0.9	0.9	0.2	0.2
0.474	3.0401	3.0401	1.8938	1.4	1.4	0.9	0.9	0.2	0.2
0.475	3.0468	3.0468	1.898	1.4	1.4	0.9	0.9	0.2	0.2
0.476	3.0542	3.0542	1.9026	1.4	1.4	0.9	0.9	0.2	0.2
0.477	3.0619	3.0619	1.9074	1.4	1.4	0.9	0.9	0.2	0.2
0.478	3.07	3.07	1.9125	1.4	1.4	0.9	0.9	0.2	0.2
0.479	3.0786	3.0786	1.9178	1.4	1.4	0.9	0.9	0.2	0.2
0.48	3.0878	3.0878	1.9235	1.4	1.4	0.9	0.9	0.2	0.2
0.481	3.0976	3.0976	1.9296	1.4	1.4	0.9	0.9	0.2	0.2
0.482	3.108	3.108	1.9361	1.4	1.4	0.9	0.9	0.2	0.2
0.483	3.1192	3.1192	1.9431	1.4	1.4	0.9	0.9	0.2	0.2
0.484	3.1311	3.1311	1.9505	1.4	1.4	0.9	0.9	0.2	0.2
0.485	3.1441	3.1441	1.9586	1.4	1.4	0.9	0.9	0.2	0.2
0.486	3.1582	3.1582	1.9674	1.4	1.4	0.9	0.9	0.2	0.2
0.487	3.1727	3.1727	1.9764	1.4	1.4	0.9	0.9	0.2	0.2
0.488	3.1874	3.1874	1.9856	1.4	1.4	0.9	0.9	0.2	0.2
0.489	3.2031	3.2031	1.9953	1.4	1.4	0.9	0.9	0.2	0.2
0.49	3.2202	3.2202	2.006	1.4	1.4	0.9	0.9	0.2	0.2
0.491	3.239	3.239	2.0177	1.4	1.4	0.9	0.9	0.2	0.2
0.492	3.2592	3.2592	2.0303	1.4	1.4	0.9	0.9	0.2	0.2
0.493	3.2815	3.2815	2.0442	1.4	1.4	0.9	0.9	0.2	0.2
0.494	3.3063	3.3063	2.0597	1.4	1.4	0.9	0.9	0.2	0.2
0.495	3.3341	3.3341	2.077	1.4	1.4	0.9	0.9	0.2	0.2
0.496	3.3651	3.3651	2.0963	1.4	1.4	0.9	0.9	0.2	0.2
0.497	3.3991	3.3991	2.1175	1.4	1.4	0.9	0.9	0.2	0.2
0.498	3.4363	3.4363	2.1407	1.4	1.4	0.9	0.9	0.2	0.2
0.499	3.4774	3.4774	2.1662	1.4	1.4	0.9	0.9	0.2	0.2
0.5	3.522	3.522	2.194	1.4	1.4	0.9	0.9	0.2	0.2
0.501	3.5705	3.5705	2.2242	1.4	1.4	0.9	0.9	0.2	0.2
0.502	3.6233	3.6233	2.2571	1.4	1.4	0.9	0.9	0.2	0.2
0.503	3.6802	3.6802	2.2926	1.4	1.4	0.9	0.9	0.2	0.2
0.504	3.7412	3.7412	2.3306	1.4	1.4	0.9	0.9	0.2	0.2
0.505	3.8069	3.8069	2.3715	1.4	1.4	0.9	0.9	0.2	0.2
0.506	3.8777	3.8777	2.4156	1.4	1.4	0.9	0.9	0.2	0.2
0.507	3.9539	3.9539	2.4631	1.4	1.4	0.9	0.9	0.2	0.2
0.508	4.0356	4.0356	2.514	1.4	1.4	0.9	0.9	0.2	0.2
0.509	4.1234	4.1234	2.5687	1.4	1.4	0.9	0.9	0.2	0.2
0.51	4.2177	4.2177	2.6274	1.4	1.4	0.9	0.9	0.2	0.2
0.511	4.3187	4.3187	2.6903	1.4	1.4	0.9	0.9	0.2	0.2
0.512	4.4266	4.4266	2.7576	1.4	1.4	0.9	0.9	0.2	0.2
0.513	4.5418	4.5418	2.8293	1.4	1.4	0.9	0.9	0.2	0.2
0.514	4.6649	4.6649	2.906	1.4	1.4	0.9	0.9	0.2	0.2
0.515	4.7954	4.7954	2.9873	1.4	1.4	0.9	0.9	0.2	0.2
0.516	4.9327	4.9327	3.0728	1.4	1.4	0.9	0.9	0.2	0.2
0.517	5.0759	5.0759	3.162	1.4	1.4	0.9	0.9	0.2	0.2
0.518	5.2235	5.2235	3.254	1.4	1.4	0.9	0.9	0.2	0.2
0.519	5.374	5.374	3.3477	1.4	1.4	0.9	0.9	0.2	0.2
0.52	5.5254	5.5254	3.442	1.4	1.4	0.9	0.9	0.2	0.2
0.521	5.6764	5.6764	3.5361	1.4	1.4	0.9	0.9	0.2	0.2
0.522	5.8265	5.8265	3.6296	1.4	1.4	0.9	0.9	0.2	0.2
0.523	5.9749	5.9749	3.7221	1.4	1.4	0.9	0.9	0.2	0.2
0.524	6.1207	6.1207	3.8129	1.4	1.4	0.9	0.9	0.2	0.2
0.525	6.2631	6.2631	3.9016	1.4	1.4	0.9	0.9	0.2	0.2
0.526	6.4015	6.4015	3.9878	1.4	1.4	0.9	0.9	0.2	0.2
0.527	6.5349	6.5349	4.0709	1.4	1.4	0.9	0.9	0.2	0.2
0.528	6.6617	6.6617	4.1499	1.4	1.4	0.9	0.9	0.2	0.2
0.529	6.7813	6.7813	4.2244	1.4	1.4	0.9	0.9	0.2	0.2
0.53	6.8928	6.8928	4.2939	1.4	1.4	0.9	0.9	0.2	0.2
0.531	6.996	6.996	4.3582	1.4	1.4	0.9	0.9	0.2	0.2
0.532	7.0915	7.0915	4.4176	1.4	1.4	0.9	0.9	0.2	0.2
0.533	7.179	7.179	4.4721	1.4	1.4	0.9	0.9	0.2	0.2
0.534	7.2594	7.2594	4.5222	1.4	1.4	0.9	0.9	0.2	0.2
0.535	7.3335	7.3335	4.5684	1.4	1.4	0.9	0.9	0.2	0.2
0.536	7.4015	7.4015	4.6108	1.4	1.4	0.9	0.9	0.2	0.2
0.537	7.4642	7.4642	4.6498	1.4	1.4	0.9	0.9	0.2	0.2
0.538	7.5223	7.5223	4.686	1.4	1.4	0.9	0.9	0.2	0.2
0.539	7.5762	7.5762	4.7196	1.4	1.4	0.9	0.9	0.2	0.2
0.54	7.6269	7.6269	4.7512	1.4	1.4	0.9	0.9	0.2	0.2
0.541	7.6748	7.6748	4.781	1.4	1.4	0.9	0.9	0.2	0.2
0.542	7.7205	7.7205	4.8095	1.4	1.4	0.9	0.9	0.2	0.2
0.543	7.7646	7.7646	4.837	1.4	1.4	0.9	0.9	0.2	0.2
0.544	7.8074	7.8074	4.8636	1.4	1.4	0.9	0.9	0.2	0.2
0.545	7.8488	7.8488	4.8894	1.4	1.4	0.9	0.9	0.2	0.2
0.546	7.889	7.889	4.9145	1.4	1.4	0.9	0.9	0.2	0.2
0.547	7.9279	7.9279	4.9387	1.4	1.4	0.9	0.9	0.2	0.2
0.548	7.965	7.965	4.9618	1.4	1.4	0.9	0.9	0.2	0.2
0.549	7.9996	7.9996	4.9834	1.4	1.4	0.9	0.9	0.2	0.2
0.55	8.0307	8.0307	5.0027	1.4	1.4	0.9	0.9	0.2	0.2
0.551	8.0576	8.0576	5.0195	1.4	1.4	0.9	0.9	0.2	0.2
0.552	8.08	8.08	5.0335	1.4	1.4	0.9	0.9	0.2	0.2
0.553	8.0964	8.0964	5.0436	1.4	1.4	0.9	0.9	0.2	0.2
0.554	8.1057	8.1057	5.0494	1.4	1.4	0.9	0.9	0.2	0.2
0.555	8.1076	8.1076	5.0506	1.4	1.4	0.9	0.9	0.2	0.2
0.556	8.1017	8.1017	5.047	1.4	1.4	0.9	0.9	0.2	0.2
0.557	8.0876	8.0876	5.0382	1.4	1.4	0.9	0.9	0.2	0.2
0.558	8.0651	8.0651	5.0242	1.4	1.4	0.9	0.9	0.2	0.2
0.559	8.0338	8.0338	5.0046	1.4	1.4	0.9	0.9	0.2	0.2
0.56	7.9942	7.9942	4.98	1.4	1.4	0.9	0.9	0.2	0.2
0.561	7.9469	7.9469	4.9505	1.4	1.4	0.9	0.9	0.2	0.2
0.562	7.8918	7.8918	4.9162	1.4	1.4	0.9	0.9	0.2	0.2
0.563	7.8295	7.8295	4.8774	1.4	1.4	0.9	0.9	0.2	0.2
0.564	7.7607	7.7607	4.8346	1.4	1.4	0.9	0.9	0.2	0.2
0.565	7.686	7.686	4.788	1.4	1.4	0.9	0.9	0.2	0.2
0.566	7.6061	7.6061	4.7382	1.4	1.4	0.9	0.9	0.2	0.2
0.567	7.522	7.522	4.6858	1.4	1.4	0.9	0.9	0.2	0.2
0.568	7.4347	7.4347	4.6315	1.4	1.4	0.9	0.9	0.2	0.2
0.569	7.3457	7.3457	4.576	1.4	1.4	0.9	0.9	0.2	0.2
0.57	7.2563	7.2563	4.5203	1.4	1.4	0.9	0.9	0.2	0.2
0.571	7.1678	7.1678	4.4652	1.4	1.4	0.9	0.9	0.2	0.2
0.572	7.0815	7.0815	4.4114	1.4	1.4	0.9	0.9	0.2	0.2
0.573	6.9983	6.9983	4.3596	1.4	1.4	0.9	0.9	0.2	0.2
0.574	6.9186	6.9186	4.31	1.4	1.4	0.9	0.9	0.2	0.2
0.575	6.8432	6.8432	4.263	1.4	1.4	0.9	0.9	0.2	0.2
0.576	6.7718	6.7718	4.2185	1.4	1.4	0.9	0.9	0.2	0.2
0.577	6.7043	6.7043	4.1764	1.4	1.4	0.9	0.9	0.2	0.2
0.578	6.6408	6.6408	4.1369	1.4	1.4	0.9	0.9	0.2	0.2
0.579	6.581	6.581	4.0996	1.4	1.4	0.9	0.9	0.2	0.2
0.58	6.5248	6.5248	4.0646	1.4	1.4	0.9	0.9	0.2	0.2
0.581	6.4723	6.4723	4.0319	1.4	1.4	0.9	0.9	0.2	0.2
0.582	6.4233	6.4233	4.0014	1.4	1.4	0.9	0.9	0.2	0.2
0.583	6.3783	6.3783	3.9733	1.4	1.4	0.9	0.9	0.2	0.2
0.584	6.3371	6.3371	3.9477	1.4	1.4	0.9	0.9	0.2	0.2
0.585	6.299	6.299	3.9239	1.4	1.4	0.9	0.9	0.2	0.2
0.586	6.2637	6.2637	3.902	1.4	1.4	0.9	0.9	0.2	0.2
0.587	6.2311	6.2311	3.8817	1.4	1.4	0.9	0.9	0.2	0.2
0.588	6.2008	6.2008	3.8628	1.4	1.4	0.9	0.9	0.2	0.2
0.589	6.1721	6.1721	3.8449	1.4	1.4	0.9	0.9	0.2	0.2
0.59	6.145	6.145	3.828	1.4	1.4	0.9	0.9	0.2	0.2
0.591	6.1199	6.1199	3.8124	1.4	1.4	0.9	0.9	0.2	0.2
0.592	6.0965	6.0965	3.7978	1.4	1.4	0.9	0.9	0.2	0.2
0.593	6.0749	6.0749	3.7844	1.4	1.4	0.9	0.9	0.2	0.2
0.594	6.0553	6.0553	3.7722	1.4	1.4	0.9	0.9	0.2	0.2
0.595	6.0375	6.0375	3.7611	1.4	1.4	0.9	0.9	0.2	0.2
0.596	6.0212	6.0212	3.7509	1.4	1.4	0.9	0.9	0.2	0.2
0.597	6.0058	6.0058	3.7413	1.4	1.4	0.9	0.9	0.2	0.2
0.598	5.9906	5.9906	3.7319	1.4	1.4	0.9	0.9	0.2	0.2
0.599	5.9753	5.9753	3.7223	1.4	1.4	0.9	0.9	0.2	0.2
0.6	5.9591	5.9591	3.7122	1.4	1.4	0.9	0.9	0.2	0.2
0.601	5.9416	5.9416	3.7014	1.4	1.4	0.9	0.9	0.2	0.2
0.602	5.9225	5.9225	3.6894	1.4	1.4	0.9	0.9	0.2	0.2
0.603	5.9015	5.9015	3.6763	1.4	1.4	0.9	0.9	0.2	0.2
0.604	5.8783	5.8783	3.6619	1.4	1.4	0.9	0.9	0.2	0.2
0.605	5.8527	5.8527	3.6459	1.4	1.4	0.9	0.9	0.2	0.2
0.606	5.8249	5.8249	3.6286	1.4	1.4	0.9	0.9	0.2	0.2
0.607	5.795	5.795	3.61	1.4	1.4	0.9	0.9	0.2	0.2
0.608	5.7633	5.7633	3.5903	1.4	1.4	0.9	0.9	0.2	0.2
0.609	5.7302	5.7302	3.5696	1.4	1.4	0.9	0.9	0.2	0.2
0.61	5.6959	5.6959	3.5482	1.4	1.4	0.9	0.9	0.2	0.2
0.611	5.6614	5.6614	3.5268	1.4	1.4	0.9	0.9	0.2	0.2
0.612	5.627	5.627	3.5053	1.4	1.4	0.9	0.9	0.2	0.2
0.613	5.5928	5.5928	3.484	1.4	1.4	0.9	0.9	0.2	0.2
0.614	5.5599	5.5599	3.4636	1.4	1.4	0.9	0.9	0.2	0.2
0.615	5.5283	5.5283	3.4439	1.4	1.4	0.9	0.9	0.2	0.2
0.616	5.4982	5.4982	3.4251	1.4	1.4	0.9	0.9	0.2	0.2
0.617	5.4701	5.4701	3.4076	1.4	1.4	0.9	0.9	0.2	0.2
0.618	5.444	5.444	3.3913	1.4	1.4	0.9	0.9	0.2	0.2
0.619	5.4203	5.4203	3.3766	1.4	1.4	0.9	0.9	0.2	0.2
0.62	5.3993	5.3993	3.3635	1.4	1.4	0.9	0.9	0.2	0.2
0.621	5.381	5.381	3.3521	1.4	1.4	0.9	0.9	0.2	0.2
0.622	5.3654	5.3654	3.3424	1.4	1.4	0.9	0.9	0.2	0.2
0.623	5.3523	5.3523	3.3342	1.4	1.4	0.9	0.9	0.2	0.2
0.624	5.3417	5.3417	3.3276	1.4	1.4	0.9	0.9	0.2	0.2
0.625	5.3332	5.3332	3.3223	1.4	1.4	0.9	0.9	0.2	0.2
0.626	5.3265	5.3265	3.3181	1.4	1.4	0.9	0.9	0.2	0.2
0.627	5.3213	5.3213	3.3149	1.4	1.4	0.9	0.9	0.2	0.2
0.628	5.3166	5.3166	3.312	1.4	1.4	0.9	0.9	0.2	0.2
0.629	5.3114	5.3114	3.3088	1.4	1.4	0.9	0.9	0.2	0.2
0.63	5.3053	5.3053	3.305	1.4	1.4	0.9	0.9	0.2	0.2
0.631	5.2972	5.2972	3.2999	1.4	1.4	0.9	0.9	0.2	0.2
0.632	5.2859	5.2859	3.2929	1.4	1.4	0.9	0.9	0.2	0.2
0.633	5.271	5.271	3.2836	1.4	1.4	0.9	0.9	0.2	0.2
0.634	5.2515	5.2515	3.2714	1.4	1.4	0.9	0.9	0.2	0.2
0.635	5.2271	5.2271	3.2562	1.4	1.4	0.9	0.9	0.2	0.2
0.636	5.1976	5.1976	3.2378	1.4	1.4	0.9	0.9	0.2	0.2
0.637	5.1628	5.1628	3.2161	1.4	1.4	0.9	0.9	0.2	0.2
0.638	5.1228	5.1228	3.1913	1.4	1.4	0.9	0.9	0.2	0.2
0.639	5.0781	5.0781	3.1634	1.4	1.4	0.9	0.9	0.2	0.2
0.64	5.0297	5.0297	3.1332	1.4	1.4	0.9	0.9	0.2	0.2
0.641	4.9779	4.9779	3.101	1.4	1.4	0.9	0.9	0.2	0.2
0.642	4.9239	4.9239	3.0673	1.4	1.4	0.9	0.9	0.2	0.2
0.643	4.8694	4.8694	3.0334	1.4	1.4	0.9	0.9	0.2	0.2
0.644	4.8157	4.8157	2.9999	1.4	1.4	0.9	0.9	0.2	0.2
0.645	4.7639	4.7639	2.9677	1.4	1.4	0.9	0.9	0.2	0.2
0.646	4.7147	4.7147	2.937	1.4	1.4	0.9	0.9	0.2	0.2
0.647	4.6691	4.6691	2.9086	1.4	1.4	0.9	0.9	0.2	0.2
0.648	4.628	4.628	2.883	1.4	1.4	0.9	0.9	0.2	0.2
0.649	4.5914	4.5914	2.8602	1.4	1.4	0.9	0.9	0.2	0.2
0.65	4.5601	4.5601	2.8407	1.4	1.4	0.9	0.9	0.2	0.2
0.651	4.534	4.534	2.8245	1.4	1.4	0.9	0.9	0.2	0.2
0.652	4.5123	4.5123	2.8109	1.4	1.4	0.9	0.9	0.2	0.2
0.653	4.4939	4.4939	2.7995	1.4	1.4	0.9	0.9	0.2	0.2
0.654	4.4757	4.4757	2.7882	1.4	1.4	0.9	0.9	0.2	0.2
0.655	4.4555	4.4555	2.7756	1.4	1.4	0.9	0.9	0.2	0.2
0.656	4.433	4.433	2.7616	1.4	1.4	0.9	0.9	0.2	0.2
0.657	4.4069	4.4069	2.7453	1.4	1.4	0.9	0.9	0.2	0.2
0.658	4.3768	4.3768	2.7265	1.4	1.4	0.9	0.9	0.2	0.2
0.659	4.3429	4.3429	2.7054	1.4	1.4	0.9	0.9	0.2	0.2
0.66	4.3065	4.3065	2.6827	1.4	1.4	0.9	0.9	0.2	0.2
0.661	4.2698	4.2698	2.6598	1.4	1.4	0.9	0.9	0.2	0.2
0.662	4.2342	4.2342	2.6377	1.4	1.4	0.9	0.9	0.2	0.2
0.663	4.2008	4.2008	2.6169	1.4	1.4	0.9	0.9	0.2	0.2
0.664	4.1698	4.1698	2.5976	1.4	1.4	0.9	0.9	0.2	0.2
0.665	4.1416	4.1416	2.58	1.4	1.4	0.9	0.9	0.2	0.2
0.666	4.1172	4.1172	2.5648	1.4	1.4	0.9	0.9	0.2	0.2
0.667	4.0969	4.0969	2.5522	1.4	1.4	0.9	0.9	0.2	0.2
0.668	4.0812	4.0812	2.5424	1.4	1.4	0.9	0.9	0.2	0.2
0.669	4.0704	4.0704	2.5356	1.4	1.4	0.9	0.9	0.2	0.2
0.67	4.0642	4.0642	2.5318	1.4	1.4	0.9	0.9	0.2	0.2
0.671	4.0626	4.0626	2.5308	1.4	1.4	0.9	0.9	0.2	0.2
0.672	4.0657	4.0657	2.5327	1.4	1.4	0.9	0.9	0.2	0.2
0.673	4.073	4.073	2.5373	1.4	1.4	0.9	0.9	0.2	0.2
0.674	4.0846	4.0846	2.5445	1.4	1.4	0.9	0.9	0.2	0.2
0.675	4.1004	4.1004	2.5543	1.4	1.4	0.9	0.9	0.2	0.2
0.676	4.1207	4.1207	2.567	1.4	1.4	0.9	0.9	0.2	0.2
0.677	4.146	4.146	2.5827	1.4	1.4	0.9	0.9	0.2	0.2
0.678	4.1769	4.1769	2.602	1.4	1.4	0.9	0.9	0.2	0.2
0.679	4.2145	4.2145	2.6254	1.4	1.4	0.9	0.9	0.2	0.2
0.68	4.2604	4.2604	2.654	1.4	1.4	0.9	0.9	0.2	0.2
0.681	4.3165	4.3165	2.689	1.4	1.4	0.9	0.9	0.2	0.2
0.682	4.3863	4.3863	2.7325	1.4	1.4	0.9	0.9	0.2	0.2
0.683	4.4746	4.4746	2.7874	1.4	1.4	0.9	0.9	0.2	0.2
0.684	4.5846	4.5846	2.856	1.4	1.4	0.9	0.9	0.2	0.2
0.685	4.7153	4.7153	2.9374	1.4	1.4	0.9	0.9	0.2	0.2
0.686	4.8659	4.8659	3.0312	1.4	1.4	0.9	0.9	0.2	0.2
0.687	5.0367	5.0367	3.1376	1.4	1.4	0.9	0.9	0.2	0.2
0.688	5.2307	5.2307	3.2585	1.4	1.4	0.9	0.9	0.2	0.2
0.689	5.4505	5.4505	3.3954	1.4	1.4	0.9	0.9	0.2	0.2
0.69	5.6986	5.6986	3.55	1.4	1.4	0.9	0.9	0.2	0.2
0.691	5.9786	5.9786	3.7244	1.4	1.4	0.9	0.9	0.2	0.2
0.692	6.2949	6.2949	3.9214	1.4	1.4	0.9	0.9	0.2	0.2
0.693	6.6516	6.6516	4.1436	1.4	1.4	0.9	0.9	0.2	0.2
0.694	7.0514	7.0514	4.3927	1.4	1.4	0.9	0.9	0.2	0.2
0.695	7.4951	7.4951	4.6691	1.4	1.4	0.9	0.9	0.2	0.2
0.696	7.9833	7.9833	4.9732	1.4	1.4	0.9	0.9	0.2	0.2
0.697	8.5145	8.5145	5.3041	1.4	1.4	0.9	0.9	0.2	0.2
0.698	9.0838	9.0838	5.6588	1.4	1.4	0.9	0.9	0.2	0.2
0.699	9.6885	9.6885	6.0354	1.4	1.4	0.9	0.9	0.2	0.2
0.7	10.3244	10.3244	6.4316	1.4	1.4	0.9	0.9	0.2	0.2
0.701	10.9872	10.9872	6.8445	1.4	1.4	0.9	0.9	0.2	0.2
0.702	11.6719	11.6719	7.271	1.4	1.4	0.9	0.9	0.2	0.2
0.703	12.3729	12.3729	7.7077	1.4	1.4	0.9	0.9	0.2	0.2
0.704	13.0854	13.0854	8.1516	1.4	1.4	0.9	0.9	0.2	0.2
0.705	13.8076	13.8076	8.6015	1.4	1.4	0.9	0.9	0.2	0.2
0.706	14.5389	14.5389	9.057	1.4	1.4	0.9	0.9	0.2	0.2
0.707	15.28	15.28	9.5187	1.4	1.4	0.9	0.9	0.2	0.2
0.708	16.0316	16.0316	9.9869	1.4	1.4	0.9	0.9	0.2	0.2
0.709	16.794	16.794	10.4618	1.4	1.4	0.9	0.9	0.2	0.2
0.71	17.5668	17.5668	10.9432	1.4	1.4	0.9	0.9	0.2	0.2
0.711	18.3489	18.3489	11.4305	1.4	1.4	0.9	0.9	0.2	0.2
0.712	19.1391	19.1391	11.9227	1.4	1.4	0.9	0.9	0.2	0.2
0.713	19.9396	19.9396	12.4214	1.4	1.4	0.9	0.9	0.2	0.2
0.714	20.7581	20.7581	12.9313	1.4	1.4	0.9	0.9	0.2	0.2
0.715	21.6009	21.6009	13.4563	1.4	1.4	0.9	0.9	0.2	0.2
0.716	22.4702	22.4702	13.9978	1.4	1.4	0.9	0.9	0.2	0.2
0.717	23.3544	23.3544	14.5486	1.4	1.4	0.9	0.9	0.2	0.2
0.718	24.2403	24.2403	15.1005	1.4	1.4	0.9	0.9	0.2	0.2
0.719	25.1208	25.1208	15.649	1.4	1.4	0.9	0.9	0.2	0.2
0.72	26.0006	26.0006	16.1971	1.4	1.4	0.9	0.9	0.2	0.2
0.721	26.8809	26.8809	16.7455	1.4	1.4	0.9	0.9	0.2	0.2
0.722	27.755	27.755	17.29	1.4	1.4	0.9	0.9	0.2	0.2
