*Name: Unvegetated Ground
Type: Gravel and bare soil
Particle Size: Solid
Wavelength Range: All

Origin: Remote Sensing Laboratories, University of Zurich

Description: linear spectral mix of 1/3 gravel and 2/3 bare soil

Measurement: Hemispherical Conical Reflectance Factor HCRF

First Column:  X Wavelength (micrometers)
Second Column:  Y Reflectance (percent)
First X Value: 0.354
Last X Value: 2.45
Number of X Values: 2097
Additional Information:  None*

*Number of Lambda pertinent values : *  2097
*Lambda_min - Lambda_max : *  0.354 2.45
*Hapke parameters : Bo - h - b1 - c1 - b2 - c2 *  1 1 1 1 1 1
*Lambda - Ro - Refraction index - A - Alpha - w_Hapke - A_Hapke_spec - Alpha_Hapke_spec - T_Direct - T_Diffus*
0.354	3.3972	1.4	1000	0.2	30	1000	0.2	0	0
0.355	3.41	1.4	1000	0.2	30	1000	0.2	0	0
0.356	3.4225	1.4	1000	0.2	30	1000	0.2	0	0
0.357	3.4334	1.4	1000	0.2	30	1000	0.2	0	0
0.358	3.4446	1.4	1000	0.2	30	1000	0.2	0	0
0.359	3.4579	1.4	1000	0.2	30	1000	0.2	0	0
0.36	3.4717	1.4	1000	0.2	30	1000	0.2	0	0
0.361	3.485	1.4	1000	0.2	30	1000	0.2	0	0
0.362	3.4977	1.4	1000	0.2	30	1000	0.2	0	0
0.363	3.5111	1.4	1000	0.2	30	1000	0.2	0	0
0.364	3.5266	1.4	1000	0.2	30	1000	0.2	0	0
0.365	3.5436	1.4	1000	0.2	30	1000	0.2	0	0
0.366	3.56	1.4	1000	0.2	30	1000	0.2	0	0
0.367	3.5749	1.4	1000	0.2	30	1000	0.2	0	0
0.368	3.5908	1.4	1000	0.2	30	1000	0.2	0	0
0.369	3.6079	1.4	1000	0.2	30	1000	0.2	0	0
0.37	3.6254	1.4	1000	0.2	30	1000	0.2	0	0
0.371	3.643	1.4	1000	0.2	30	1000	0.2	0	0
0.372	3.6602	1.4	1000	0.2	30	1000	0.2	0	0
0.373	3.6789	1.4	1000	0.2	30	1000	0.2	0	0
0.374	3.7018	1.4	1000	0.2	30	1000	0.2	0	0
0.375	3.726	1.4	1000	0.2	30	1000	0.2	0	0
0.376	3.7508	1.4	1000	0.2	30	1000	0.2	0	0
0.377	3.7763	1.4	1000	0.2	30	1000	0.2	0	0
0.378	3.8025	1.4	1000	0.2	30	1000	0.2	0	0
0.379	3.8296	1.4	1000	0.2	30	1000	0.2	0	0
0.38	3.8577	1.4	1000	0.2	30	1000	0.2	0	0
0.381	3.886	1.4	1000	0.2	30	1000	0.2	0	0
0.382	3.9142	1.4	1000	0.2	30	1000	0.2	0	0
0.383	3.9424	1.4	1000	0.2	30	1000	0.2	0	0
0.384	3.9717	1.4	1000	0.2	30	1000	0.2	0	0
0.385	4.0031	1.4	1000	0.2	30	1000	0.2	0	0
0.386	4.036	1.4	1000	0.2	30	1000	0.2	0	0
0.387	4.0684	1.4	1000	0.2	30	1000	0.2	0	0
0.388	4.0998	1.4	1000	0.2	30	1000	0.2	0	0
0.389	4.132	1.4	1000	0.2	30	1000	0.2	0	0
0.39	4.1649	1.4	1000	0.2	30	1000	0.2	0	0
0.391	4.1978	1.4	1000	0.2	30	1000	0.2	0	0
0.392	4.2295	1.4	1000	0.2	30	1000	0.2	0	0
0.393	4.2594	1.4	1000	0.2	30	1000	0.2	0	0
0.394	4.2899	1.4	1000	0.2	30	1000	0.2	0	0
0.395	4.3216	1.4	1000	0.2	30	1000	0.2	0	0
0.396	4.352	1.4	1000	0.2	30	1000	0.2	0	0
0.397	4.3815	1.4	1000	0.2	30	1000	0.2	0	0
0.398	4.4097	1.4	1000	0.2	30	1000	0.2	0	0
0.399	4.4362	1.4	1000	0.2	30	1000	0.2	0	0
0.4	4.4627	1.4	1000	0.2	30	1000	0.2	0	0
0.401	4.4882	1.4	1000	0.2	30	1000	0.2	0	0
0.402	4.5122	1.4	1000	0.2	30	1000	0.2	0	0
0.403	4.5359	1.4	1000	0.2	30	1000	0.2	0	0
0.404	4.5597	1.4	1000	0.2	30	1000	0.2	0	0
0.405	4.584	1.4	1000	0.2	30	1000	0.2	0	0
0.406	4.609	1.4	1000	0.2	30	1000	0.2	0	0
0.407	4.6349	1.4	1000	0.2	30	1000	0.2	0	0
0.408	4.6613	1.4	1000	0.2	30	1000	0.2	0	0
0.409	4.6879	1.4	1000	0.2	30	1000	0.2	0	0
0.41	4.7149	1.4	1000	0.2	30	1000	0.2	0	0
0.411	4.7418	1.4	1000	0.2	30	1000	0.2	0	0
0.412	4.7692	1.4	1000	0.2	30	1000	0.2	0	0
0.413	4.7973	1.4	1000	0.2	30	1000	0.2	0	0
0.414	4.8246	1.4	1000	0.2	30	1000	0.2	0	0
0.415	4.8521	1.4	1000	0.2	30	1000	0.2	0	0
0.416	4.8805	1.4	1000	0.2	30	1000	0.2	0	0
0.417	4.9096	1.4	1000	0.2	30	1000	0.2	0	0
0.418	4.939	1.4	1000	0.2	30	1000	0.2	0	0
0.419	4.9688	1.4	1000	0.2	30	1000	0.2	0	0
0.42	4.9991	1.4	1000	0.2	30	1000	0.2	0	0
0.421	5.0307	1.4	1000	0.2	30	1000	0.2	0	0
0.422	5.063	1.4	1000	0.2	30	1000	0.2	0	0
0.423	5.0957	1.4	1000	0.2	30	1000	0.2	0	0
0.424	5.129	1.4	1000	0.2	30	1000	0.2	0	0
0.425	5.1634	1.4	1000	0.2	30	1000	0.2	0	0
0.426	5.1991	1.4	1000	0.2	30	1000	0.2	0	0
0.427	5.2356	1.4	1000	0.2	30	1000	0.2	0	0
0.428	5.273	1.4	1000	0.2	30	1000	0.2	0	0
0.429	5.3116	1.4	1000	0.2	30	1000	0.2	0	0
0.43	5.3514	1.4	1000	0.2	30	1000	0.2	0	0
0.431	5.392	1.4	1000	0.2	30	1000	0.2	0	0
0.432	5.4328	1.4	1000	0.2	30	1000	0.2	0	0
0.433	5.4734	1.4	1000	0.2	30	1000	0.2	0	0
0.434	5.5139	1.4	1000	0.2	30	1000	0.2	0	0
0.435	5.5542	1.4	1000	0.2	30	1000	0.2	0	0
0.436	5.594	1.4	1000	0.2	30	1000	0.2	0	0
0.437	5.6333	1.4	1000	0.2	30	1000	0.2	0	0
0.438	5.6722	1.4	1000	0.2	30	1000	0.2	0	0
0.439	5.7111	1.4	1000	0.2	30	1000	0.2	0	0
0.44	5.7499	1.4	1000	0.2	30	1000	0.2	0	0
0.441	5.7881	1.4	1000	0.2	30	1000	0.2	0	0
0.442	5.8261	1.4	1000	0.2	30	1000	0.2	0	0
0.443	5.8632	1.4	1000	0.2	30	1000	0.2	0	0
0.444	5.899	1.4	1000	0.2	30	1000	0.2	0	0
0.445	5.9338	1.4	1000	0.2	30	1000	0.2	0	0
0.446	5.9675	1.4	1000	0.2	30	1000	0.2	0	0
0.447	6.0001	1.4	1000	0.2	30	1000	0.2	0	0
0.448	6.0315	1.4	1000	0.2	30	1000	0.2	0	0
0.449	6.0613	1.4	1000	0.2	30	1000	0.2	0	0
0.45	6.0896	1.4	1000	0.2	30	1000	0.2	0	0
0.451	6.1169	1.4	1000	0.2	30	1000	0.2	0	0
0.452	6.1433	1.4	1000	0.2	30	1000	0.2	0	0
0.453	6.1684	1.4	1000	0.2	30	1000	0.2	0	0
0.454	6.1921	1.4	1000	0.2	30	1000	0.2	0	0
0.455	6.2151	1.4	1000	0.2	30	1000	0.2	0	0
0.456	6.2371	1.4	1000	0.2	30	1000	0.2	0	0
0.457	6.2583	1.4	1000	0.2	30	1000	0.2	0	0
0.458	6.2787	1.4	1000	0.2	30	1000	0.2	0	0
0.459	6.298	1.4	1000	0.2	30	1000	0.2	0	0
0.46	6.3167	1.4	1000	0.2	30	1000	0.2	0	0
0.461	6.335	1.4	1000	0.2	30	1000	0.2	0	0
0.462	6.3526	1.4	1000	0.2	30	1000	0.2	0	0
0.463	6.37	1.4	1000	0.2	30	1000	0.2	0	0
0.464	6.3874	1.4	1000	0.2	30	1000	0.2	0	0
0.465	6.4047	1.4	1000	0.2	30	1000	0.2	0	0
0.466	6.4221	1.4	1000	0.2	30	1000	0.2	0	0
0.467	6.4397	1.4	1000	0.2	30	1000	0.2	0	0
0.468	6.4573	1.4	1000	0.2	30	1000	0.2	0	0
0.469	6.4751	1.4	1000	0.2	30	1000	0.2	0	0
0.47	6.4932	1.4	1000	0.2	30	1000	0.2	0	0
0.471	6.5117	1.4	1000	0.2	30	1000	0.2	0	0
0.472	6.5303	1.4	1000	0.2	30	1000	0.2	0	0
0.473	6.5493	1.4	1000	0.2	30	1000	0.2	0	0
0.474	6.5686	1.4	1000	0.2	30	1000	0.2	0	0
0.475	6.588	1.4	1000	0.2	30	1000	0.2	0	0
0.476	6.6079	1.4	1000	0.2	30	1000	0.2	0	0
0.477	6.6284	1.4	1000	0.2	30	1000	0.2	0	0
0.478	6.6499	1.4	1000	0.2	30	1000	0.2	0	0
0.479	6.672	1.4	1000	0.2	30	1000	0.2	0	0
0.48	6.6947	1.4	1000	0.2	30	1000	0.2	0	0
0.481	6.7185	1.4	1000	0.2	30	1000	0.2	0	0
0.482	6.744	1.4	1000	0.2	30	1000	0.2	0	0
0.483	6.7705	1.4	1000	0.2	30	1000	0.2	0	0
0.484	6.7978	1.4	1000	0.2	30	1000	0.2	0	0
0.485	6.826	1.4	1000	0.2	30	1000	0.2	0	0
0.486	6.8553	1.4	1000	0.2	30	1000	0.2	0	0
0.487	6.8854	1.4	1000	0.2	30	1000	0.2	0	0
0.488	6.9159	1.4	1000	0.2	30	1000	0.2	0	0
0.489	6.9465	1.4	1000	0.2	30	1000	0.2	0	0
0.49	6.978	1.4	1000	0.2	30	1000	0.2	0	0
0.491	7.0104	1.4	1000	0.2	30	1000	0.2	0	0
0.492	7.0433	1.4	1000	0.2	30	1000	0.2	0	0
0.493	7.0769	1.4	1000	0.2	30	1000	0.2	0	0
0.494	7.1113	1.4	1000	0.2	30	1000	0.2	0	0
0.495	7.1466	1.4	1000	0.2	30	1000	0.2	0	0
0.496	7.1828	1.4	1000	0.2	30	1000	0.2	0	0
0.497	7.2196	1.4	1000	0.2	30	1000	0.2	0	0
0.498	7.2572	1.4	1000	0.2	30	1000	0.2	0	0
0.499	7.2955	1.4	1000	0.2	30	1000	0.2	0	0
0.5	7.3345	1.4	1000	0.2	30	1000	0.2	0	0
0.501	7.374	1.4	1000	0.2	30	1000	0.2	0	0
0.502	7.4139	1.4	1000	0.2	30	1000	0.2	0	0
0.503	7.4541	1.4	1000	0.2	30	1000	0.2	0	0
0.504	7.4945	1.4	1000	0.2	30	1000	0.2	0	0
0.505	7.5346	1.4	1000	0.2	30	1000	0.2	0	0
0.506	7.5748	1.4	1000	0.2	30	1000	0.2	0	0
0.507	7.6151	1.4	1000	0.2	30	1000	0.2	0	0
0.508	7.6556	1.4	1000	0.2	30	1000	0.2	0	0
0.509	7.6964	1.4	1000	0.2	30	1000	0.2	0	0
0.51	7.7375	1.4	1000	0.2	30	1000	0.2	0	0
0.511	7.7794	1.4	1000	0.2	30	1000	0.2	0	0
0.512	7.8218	1.4	1000	0.2	30	1000	0.2	0	0
0.513	7.8647	1.4	1000	0.2	30	1000	0.2	0	0
0.514	7.9081	1.4	1000	0.2	30	1000	0.2	0	0
0.515	7.952	1.4	1000	0.2	30	1000	0.2	0	0
0.516	7.9963	1.4	1000	0.2	30	1000	0.2	0	0
0.517	8.0404	1.4	1000	0.2	30	1000	0.2	0	0
0.518	8.084	1.4	1000	0.2	30	1000	0.2	0	0
0.519	8.1275	1.4	1000	0.2	30	1000	0.2	0	0
0.52	8.1711	1.4	1000	0.2	30	1000	0.2	0	0
0.521	8.2145	1.4	1000	0.2	30	1000	0.2	0	0
0.522	8.2577	1.4	1000	0.2	30	1000	0.2	0	0
0.523	8.3012	1.4	1000	0.2	30	1000	0.2	0	0
0.524	8.3453	1.4	1000	0.2	30	1000	0.2	0	0
0.525	8.3901	1.4	1000	0.2	30	1000	0.2	0	0
0.526	8.4351	1.4	1000	0.2	30	1000	0.2	0	0
0.527	8.4802	1.4	1000	0.2	30	1000	0.2	0	0
0.528	8.5256	1.4	1000	0.2	30	1000	0.2	0	0
0.529	8.5711	1.4	1000	0.2	30	1000	0.2	0	0
0.53	8.6169	1.4	1000	0.2	30	1000	0.2	0	0
0.531	8.6629	1.4	1000	0.2	30	1000	0.2	0	0
0.532	8.7087	1.4	1000	0.2	30	1000	0.2	0	0
0.533	8.7548	1.4	1000	0.2	30	1000	0.2	0	0
0.534	8.8013	1.4	1000	0.2	30	1000	0.2	0	0
0.535	8.8482	1.4	1000	0.2	30	1000	0.2	0	0
0.536	8.8952	1.4	1000	0.2	30	1000	0.2	0	0
0.537	8.9423	1.4	1000	0.2	30	1000	0.2	0	0
0.538	8.9895	1.4	1000	0.2	30	1000	0.2	0	0
0.539	9.0369	1.4	1000	0.2	30	1000	0.2	0	0
0.54	9.0843	1.4	1000	0.2	30	1000	0.2	0	0
0.541	9.1315	1.4	1000	0.2	30	1000	0.2	0	0
0.542	9.1784	1.4	1000	0.2	30	1000	0.2	0	0
0.543	9.2252	1.4	1000	0.2	30	1000	0.2	0	0
0.544	9.272	1.4	1000	0.2	30	1000	0.2	0	0
0.545	9.3186	1.4	1000	0.2	30	1000	0.2	0	0
0.546	9.3649	1.4	1000	0.2	30	1000	0.2	0	0
0.547	9.411	1.4	1000	0.2	30	1000	0.2	0	0
0.548	9.4572	1.4	1000	0.2	30	1000	0.2	0	0
0.549	9.5033	1.4	1000	0.2	30	1000	0.2	0	0
0.55	9.5492	1.4	1000	0.2	30	1000	0.2	0	0
0.551	9.5948	1.4	1000	0.2	30	1000	0.2	0	0
0.552	9.6404	1.4	1000	0.2	30	1000	0.2	0	0
0.553	9.6857	1.4	1000	0.2	30	1000	0.2	0	0
0.554	9.7309	1.4	1000	0.2	30	1000	0.2	0	0
0.555	9.776	1.4	1000	0.2	30	1000	0.2	0	0
0.556	9.8208	1.4	1000	0.2	30	1000	0.2	0	0
0.557	9.8655	1.4	1000	0.2	30	1000	0.2	0	0
0.558	9.9098	1.4	1000	0.2	30	1000	0.2	0	0
0.559	9.9536	1.4	1000	0.2	30	1000	0.2	0	0
0.56	9.997	1.4	1000	0.2	30	1000	0.2	0	0
0.561	10.0402	1.4	1000	0.2	30	1000	0.2	0	0
0.562	10.0825	1.4	1000	0.2	30	1000	0.2	0	0
0.563	10.1243	1.4	1000	0.2	30	1000	0.2	0	0
0.564	10.1657	1.4	1000	0.2	30	1000	0.2	0	0
0.565	10.2067	1.4	1000	0.2	30	1000	0.2	0	0
0.566	10.2473	1.4	1000	0.2	30	1000	0.2	0	0
0.567	10.2874	1.4	1000	0.2	30	1000	0.2	0	0
0.568	10.3268	1.4	1000	0.2	30	1000	0.2	0	0
0.569	10.3659	1.4	1000	0.2	30	1000	0.2	0	0
0.57	10.4046	1.4	1000	0.2	30	1000	0.2	0	0
0.571	10.4427	1.4	1000	0.2	30	1000	0.2	0	0
0.572	10.4799	1.4	1000	0.2	30	1000	0.2	0	0
0.573	10.5167	1.4	1000	0.2	30	1000	0.2	0	0
0.574	10.5532	1.4	1000	0.2	30	1000	0.2	0	0
0.575	10.5894	1.4	1000	0.2	30	1000	0.2	0	0
0.576	10.6251	1.4	1000	0.2	30	1000	0.2	0	0
0.577	10.6603	1.4	1000	0.2	30	1000	0.2	0	0
0.578	10.6949	1.4	1000	0.2	30	1000	0.2	0	0
0.579	10.7292	1.4	1000	0.2	30	1000	0.2	0	0
0.58	10.7629	1.4	1000	0.2	30	1000	0.2	0	0
0.581	10.7962	1.4	1000	0.2	30	1000	0.2	0	0
0.582	10.829	1.4	1000	0.2	30	1000	0.2	0	0
0.583	10.8617	1.4	1000	0.2	30	1000	0.2	0	0
0.584	10.8945	1.4	1000	0.2	30	1000	0.2	0	0
0.585	10.9274	1.4	1000	0.2	30	1000	0.2	0	0
0.586	10.9603	1.4	1000	0.2	30	1000	0.2	0	0
0.587	10.9929	1.4	1000	0.2	30	1000	0.2	0	0
0.588	11.0252	1.4	1000	0.2	30	1000	0.2	0	0
0.589	11.057	1.4	1000	0.2	30	1000	0.2	0	0
0.59	11.088	1.4	1000	0.2	30	1000	0.2	0	0
0.591	11.1184	1.4	1000	0.2	30	1000	0.2	0	0
0.592	11.148	1.4	1000	0.2	30	1000	0.2	0	0
0.593	11.1772	1.4	1000	0.2	30	1000	0.2	0	0
0.594	11.2061	1.4	1000	0.2	30	1000	0.2	0	0
0.595	11.2348	1.4	1000	0.2	30	1000	0.2	0	0
0.596	11.2634	1.4	1000	0.2	30	1000	0.2	0	0
0.597	11.2919	1.4	1000	0.2	30	1000	0.2	0	0
0.598	11.3204	1.4	1000	0.2	30	1000	0.2	0	0
0.599	11.3486	1.4	1000	0.2	30	1000	0.2	0	0
0.6	11.3765	1.4	1000	0.2	30	1000	0.2	0	0
0.601	11.4043	1.4	1000	0.2	30	1000	0.2	0	0
0.602	11.432	1.4	1000	0.2	30	1000	0.2	0	0
0.603	11.4598	1.4	1000	0.2	30	1000	0.2	0	0
0.604	11.488	1.4	1000	0.2	30	1000	0.2	0	0
0.605	11.5163	1.4	1000	0.2	30	1000	0.2	0	0
0.606	11.5449	1.4	1000	0.2	30	1000	0.2	0	0
0.607	11.574	1.4	1000	0.2	30	1000	0.2	0	0
0.608	11.6034	1.4	1000	0.2	30	1000	0.2	0	0
0.609	11.6328	1.4	1000	0.2	30	1000	0.2	0	0
0.61	11.662	1.4	1000	0.2	30	1000	0.2	0	0
0.611	11.6905	1.4	1000	0.2	30	1000	0.2	0	0
0.612	11.7186	1.4	1000	0.2	30	1000	0.2	0	0
0.613	11.7462	1.4	1000	0.2	30	1000	0.2	0	0
0.614	11.7731	1.4	1000	0.2	30	1000	0.2	0	0
0.615	11.7995	1.4	1000	0.2	30	1000	0.2	0	0
0.616	11.8254	1.4	1000	0.2	30	1000	0.2	0	0
0.617	11.851	1.4	1000	0.2	30	1000	0.2	0	0
0.618	11.8763	1.4	1000	0.2	30	1000	0.2	0	0
0.619	11.9014	1.4	1000	0.2	30	1000	0.2	0	0
0.62	11.9265	1.4	1000	0.2	30	1000	0.2	0	0
0.621	11.9518	1.4	1000	0.2	30	1000	0.2	0	0
0.622	11.9774	1.4	1000	0.2	30	1000	0.2	0	0
0.623	12.0033	1.4	1000	0.2	30	1000	0.2	0	0
0.624	12.0295	1.4	1000	0.2	30	1000	0.2	0	0
0.625	12.0562	1.4	1000	0.2	30	1000	0.2	0	0
0.626	12.0836	1.4	1000	0.2	30	1000	0.2	0	0
0.627	12.1115	1.4	1000	0.2	30	1000	0.2	0	0
0.628	12.1394	1.4	1000	0.2	30	1000	0.2	0	0
0.629	12.167	1.4	1000	0.2	30	1000	0.2	0	0
0.63	12.1946	1.4	1000	0.2	30	1000	0.2	0	0
0.631	12.2227	1.4	1000	0.2	30	1000	0.2	0	0
0.632	12.2512	1.4	1000	0.2	30	1000	0.2	0	0
0.633	12.2802	1.4	1000	0.2	30	1000	0.2	0	0
0.634	12.3096	1.4	1000	0.2	30	1000	0.2	0	0
0.635	12.3399	1.4	1000	0.2	30	1000	0.2	0	0
0.636	12.3712	1.4	1000	0.2	30	1000	0.2	0	0
0.637	12.4034	1.4	1000	0.2	30	1000	0.2	0	0
0.638	12.4363	1.4	1000	0.2	30	1000	0.2	0	0
0.639	12.4699	1.4	1000	0.2	30	1000	0.2	0	0
0.64	12.504	1.4	1000	0.2	30	1000	0.2	0	0
0.641	12.5383	1.4	1000	0.2	30	1000	0.2	0	0
0.642	12.5729	1.4	1000	0.2	30	1000	0.2	0	0
0.643	12.6078	1.4	1000	0.2	30	1000	0.2	0	0
0.644	12.6428	1.4	1000	0.2	30	1000	0.2	0	0
0.645	12.6774	1.4	1000	0.2	30	1000	0.2	0	0
0.646	12.7114	1.4	1000	0.2	30	1000	0.2	0	0
0.647	12.7451	1.4	1000	0.2	30	1000	0.2	0	0
0.648	12.7786	1.4	1000	0.2	30	1000	0.2	0	0
0.649	12.8118	1.4	1000	0.2	30	1000	0.2	0	0
0.65	12.845	1.4	1000	0.2	30	1000	0.2	0	0
0.651	12.8784	1.4	1000	0.2	30	1000	0.2	0	0
0.652	12.9123	1.4	1000	0.2	30	1000	0.2	0	0
0.653	12.9465	1.4	1000	0.2	30	1000	0.2	0	0
0.654	12.9804	1.4	1000	0.2	30	1000	0.2	0	0
0.655	13.0137	1.4	1000	0.2	30	1000	0.2	0	0
0.656	13.0465	1.4	1000	0.2	30	1000	0.2	0	0
0.657	13.0787	1.4	1000	0.2	30	1000	0.2	0	0
0.658	13.1099	1.4	1000	0.2	30	1000	0.2	0	0
0.659	13.1402	1.4	1000	0.2	30	1000	0.2	0	0
0.66	13.1702	1.4	1000	0.2	30	1000	0.2	0	0
0.661	13.2003	1.4	1000	0.2	30	1000	0.2	0	0
0.662	13.2308	1.4	1000	0.2	30	1000	0.2	0	0
0.663	13.2619	1.4	1000	0.2	30	1000	0.2	0	0
0.664	13.2935	1.4	1000	0.2	30	1000	0.2	0	0
0.665	13.3253	1.4	1000	0.2	30	1000	0.2	0	0
0.666	13.3577	1.4	1000	0.2	30	1000	0.2	0	0
0.667	13.3906	1.4	1000	0.2	30	1000	0.2	0	0
0.668	13.424	1.4	1000	0.2	30	1000	0.2	0	0
0.669	13.4582	1.4	1000	0.2	30	1000	0.2	0	0
0.67	13.4929	1.4	1000	0.2	30	1000	0.2	0	0
0.671	13.5281	1.4	1000	0.2	30	1000	0.2	0	0
0.672	13.5641	1.4	1000	0.2	30	1000	0.2	0	0
0.673	13.6008	1.4	1000	0.2	30	1000	0.2	0	0
0.674	13.6381	1.4	1000	0.2	30	1000	0.2	0	0
0.675	13.6758	1.4	1000	0.2	30	1000	0.2	0	0
0.676	13.7139	1.4	1000	0.2	30	1000	0.2	0	0
0.677	13.7527	1.4	1000	0.2	30	1000	0.2	0	0
0.678	13.7924	1.4	1000	0.2	30	1000	0.2	0	0
0.679	13.8331	1.4	1000	0.2	30	1000	0.2	0	0
0.68	13.8748	1.4	1000	0.2	30	1000	0.2	0	0
0.681	13.918	1.4	1000	0.2	30	1000	0.2	0	0
0.682	13.9631	1.4	1000	0.2	30	1000	0.2	0	0
0.683	14.0103	1.4	1000	0.2	30	1000	0.2	0	0
0.684	14.0599	1.4	1000	0.2	30	1000	0.2	0	0
0.685	14.1117	1.4	1000	0.2	30	1000	0.2	0	0
0.686	14.1649	1.4	1000	0.2	30	1000	0.2	0	0
0.687	14.2185	1.4	1000	0.2	30	1000	0.2	0	0
0.688	14.2724	1.4	1000	0.2	30	1000	0.2	0	0
0.689	14.3267	1.4	1000	0.2	30	1000	0.2	0	0
0.69	14.3811	1.4	1000	0.2	30	1000	0.2	0	0
0.691	14.4349	1.4	1000	0.2	30	1000	0.2	0	0
0.692	14.4877	1.4	1000	0.2	30	1000	0.2	0	0
0.693	14.5402	1.4	1000	0.2	30	1000	0.2	0	0
0.694	14.5928	1.4	1000	0.2	30	1000	0.2	0	0
0.695	14.6454	1.4	1000	0.2	30	1000	0.2	0	0
0.696	14.6976	1.4	1000	0.2	30	1000	0.2	0	0
0.697	14.7494	1.4	1000	0.2	30	1000	0.2	0	0
0.698	14.8006	1.4	1000	0.2	30	1000	0.2	0	0
0.699	14.8514	1.4	1000	0.2	30	1000	0.2	0	0
0.7	14.9016	1.4	1000	0.2	30	1000	0.2	0	0
0.701	14.9514	1.4	1000	0.2	30	1000	0.2	0	0
0.702	15.0007	1.4	1000	0.2	30	1000	0.2	0	0
0.703	15.0493	1.4	1000	0.2	30	1000	0.2	0	0
0.704	15.0969	1.4	1000	0.2	30	1000	0.2	0	0
0.705	15.144	1.4	1000	0.2	30	1000	0.2	0	0
0.706	15.191	1.4	1000	0.2	30	1000	0.2	0	0
0.707	15.238	1.4	1000	0.2	30	1000	0.2	0	0
0.708	15.2847	1.4	1000	0.2	30	1000	0.2	0	0
0.709	15.3313	1.4	1000	0.2	30	1000	0.2	0	0
0.71	15.3779	1.4	1000	0.2	30	1000	0.2	0	0
0.711	15.4248	1.4	1000	0.2	30	1000	0.2	0	0
0.712	15.4721	1.4	1000	0.2	30	1000	0.2	0	0
0.713	15.5202	1.4	1000	0.2	30	1000	0.2	0	0
0.714	15.5699	1.4	1000	0.2	30	1000	0.2	0	0
0.715	15.6213	1.4	1000	0.2	30	1000	0.2	0	0
0.716	15.6734	1.4	1000	0.2	30	1000	0.2	0	0
0.717	15.7246	1.4	1000	0.2	30	1000	0.2	0	0
0.718	15.7743	1.4	1000	0.2	30	1000	0.2	0	0
0.719	15.8224	1.4	1000	0.2	30	1000	0.2	0	0
0.72	15.8695	1.4	1000	0.2	30	1000	0.2	0	0
0.721	15.9152	1.4	1000	0.2	30	1000	0.2	0	0
0.722	15.9596	1.4	1000	0.2	30	1000	0.2	0	0
0.723	16.003	1.4	1000	0.2	30	1000	0.2	0	0
0.724	16.047	1.4	1000	0.2	30	1000	0.2	0	0
0.725	16.0921	1.4	1000	0.2	30	1000	0.2	0	0
0.726	16.1379	1.4	1000	0.2	30	1000	0.2	0	0
0.727	16.1827	1.4	1000	0.2	30	1000	0.2	0	0
0.728	16.2264	1.4	1000	0.2	30	1000	0.2	0	0
0.729	16.2688	1.4	1000	0.2	30	1000	0.2	0	0
0.73	16.3104	1.4	1000	0.2	30	1000	0.2	0	0
0.731	16.3511	1.4	1000	0.2	30	1000	0.2	0	0
0.732	16.3914	1.4	1000	0.2	30	1000	0.2	0	0
0.733	16.4317	1.4	1000	0.2	30	1000	0.2	0	0
0.734	16.4724	1.4	1000	0.2	30	1000	0.2	0	0
0.735	16.5133	1.4	1000	0.2	30	1000	0.2	0	0
0.736	16.5546	1.4	1000	0.2	30	1000	0.2	0	0
0.737	16.5965	1.4	1000	0.2	30	1000	0.2	0	0
0.738	16.6389	1.4	1000	0.2	30	1000	0.2	0	0
0.739	16.6815	1.4	1000	0.2	30	1000	0.2	0	0
0.74	16.7239	1.4	1000	0.2	30	1000	0.2	0	0
0.741	16.7661	1.4	1000	0.2	30	1000	0.2	0	0
0.742	16.8083	1.4	1000	0.2	30	1000	0.2	0	0
0.743	16.8505	1.4	1000	0.2	30	1000	0.2	0	0
0.744	16.8925	1.4	1000	0.2	30	1000	0.2	0	0
0.745	16.9345	1.4	1000	0.2	30	1000	0.2	0	0
0.746	16.9766	1.4	1000	0.2	30	1000	0.2	0	0
0.747	17.0186	1.4	1000	0.2	30	1000	0.2	0	0
0.748	17.0607	1.4	1000	0.2	30	1000	0.2	0	0
0.749	17.1029	1.4	1000	0.2	30	1000	0.2	0	0
0.75	17.1449	1.4	1000	0.2	30	1000	0.2	0	0
0.751	17.1869	1.4	1000	0.2	30	1000	0.2	0	0
0.752	17.2288	1.4	1000	0.2	30	1000	0.2	0	0
0.753	17.2705	1.4	1000	0.2	30	1000	0.2	0	0
0.754	17.3128	1.4	1000	0.2	30	1000	0.2	0	0
0.755	17.3557	1.4	1000	0.2	30	1000	0.2	0	0
0.756	17.4009	1.4	1000	0.2	30	1000	0.2	0	0
0.757	17.4527	1.4	1000	0.2	30	1000	0.2	0	0
0.758	17.5124	1.4	1000	0.2	30	1000	0.2	0	0
0.759	17.5701	1.4	1000	0.2	30	1000	0.2	0	0
0.76	17.6256	1.4	1000	0.2	30	1000	0.2	0	0
0.761	17.6775	1.4	1000	0.2	30	1000	0.2	0	0
0.762	17.7254	1.4	1000	0.2	30	1000	0.2	0	0
0.763	17.768	1.4	1000	0.2	30	1000	0.2	0	0
0.764	17.8015	1.4	1000	0.2	30	1000	0.2	0	0
0.765	17.8254	1.4	1000	0.2	30	1000	0.2	0	0
0.766	17.8502	1.4	1000	0.2	30	1000	0.2	0	0
0.767	17.8768	1.4	1000	0.2	30	1000	0.2	0	0
0.768	17.9058	1.4	1000	0.2	30	1000	0.2	0	0
0.769	17.9375	1.4	1000	0.2	30	1000	0.2	0	0
0.77	17.9719	1.4	1000	0.2	30	1000	0.2	0	0
0.771	18.0084	1.4	1000	0.2	30	1000	0.2	0	0
0.772	18.0466	1.4	1000	0.2	30	1000	0.2	0	0
0.773	18.0853	1.4	1000	0.2	30	1000	0.2	0	0
0.774	18.1239	1.4	1000	0.2	30	1000	0.2	0	0
0.775	18.1625	1.4	1000	0.2	30	1000	0.2	0	0
0.776	18.2013	1.4	1000	0.2	30	1000	0.2	0	0
0.777	18.24	1.4	1000	0.2	30	1000	0.2	0	0
0.778	18.2782	1.4	1000	0.2	30	1000	0.2	0	0
0.779	18.3163	1.4	1000	0.2	30	1000	0.2	0	0
0.78	18.3543	1.4	1000	0.2	30	1000	0.2	0	0
0.781	18.3924	1.4	1000	0.2	30	1000	0.2	0	0
0.782	18.4305	1.4	1000	0.2	30	1000	0.2	0	0
0.783	18.4688	1.4	1000	0.2	30	1000	0.2	0	0
0.784	18.507	1.4	1000	0.2	30	1000	0.2	0	0
0.785	18.5451	1.4	1000	0.2	30	1000	0.2	0	0
0.786	18.5836	1.4	1000	0.2	30	1000	0.2	0	0
0.787	18.6221	1.4	1000	0.2	30	1000	0.2	0	0
0.788	18.6605	1.4	1000	0.2	30	1000	0.2	0	0
0.789	18.6987	1.4	1000	0.2	30	1000	0.2	0	0
0.79	18.7362	1.4	1000	0.2	30	1000	0.2	0	0
0.791	18.7737	1.4	1000	0.2	30	1000	0.2	0	0
0.792	18.811	1.4	1000	0.2	30	1000	0.2	0	0
0.793	18.8474	1.4	1000	0.2	30	1000	0.2	0	0
0.794	18.8835	1.4	1000	0.2	30	1000	0.2	0	0
0.795	18.9194	1.4	1000	0.2	30	1000	0.2	0	0
0.796	18.9553	1.4	1000	0.2	30	1000	0.2	0	0
0.797	18.9911	1.4	1000	0.2	30	1000	0.2	0	0
