*Name: Elm bot
Type: Leaf Spectrum

Origin: Remote Sensing Laboratories, University of Zurich

Description: abaxial reflectance, adaxial reflectance, and adaxial transmittance

Measurement: Hemispherical Conical Reflectance Factor HCRF measured by ASD Integrating Sphere

Wavelength [nm]	abaxial Reflectance [0 1]	adaxial Reflectance [0 1]	adaxial Transmittance [0 1]
370	0.019033	0.019323	0.0055692
371	0.025918	0.026459	0.0070039
372	0.031548	0.032263	0.0062271
373	0.037907	0.03874	0.0079697
374	0.044055	0.045005	0.011279
375	0.048916	0.049995	0.014766
376	0.051095	0.052238	0.016065
377	0.051707	0.052784	0.017959
378	0.050208	0.051085	0.020023
379	0.051796	0.052101	0.023054
380	0.053014	0.053403	0.025951
381	0.053524	0.053516	0.0268
382	0.053617	0.05324	0.026624
383	0.05365	0.053225	0.026431
384	0.054032	0.053429	0.026751
385	0.05363	0.052848	0.025565
386	0.052668	0.051713	0.023454
387	0.053717	0.052505	0.025363
388	0.05461	0.053241	0.027244
389	0.054555	0.053277	0.027549
390	0.054515	0.053201	0.027552
391	0.055449	0.054057	0.029401
392	0.05602	0.054608	0.030593
393	0.056369	0.054999	0.031363
394	0.056716	0.055416	0.032131
395	0.056939	0.055746	0.032662
396	0.057165	0.056062	0.033254
397	0.057279	0.056145	0.033654
398	0.057287	0.056266	0.033995
399	0.057325	0.05647	0.034417
400	0.056878	0.056095	0.033767
401	0.056565	0.055751	0.033127
402	0.056019	0.055287	0.032024
403	0.055354	0.05478	0.030743
404	0.055204	0.054614	0.030219
405	0.054847	0.054288	0.029442
406	0.054668	0.054165	0.029176
407	0.054987	0.054515	0.02967
408	0.054815	0.054344	0.028956
409	0.05448	0.053995	0.02788
410	0.054514	0.053974	0.027583
411	0.054647	0.054107	0.027659
412	0.054867	0.054375	0.028
413	0.055041	0.054563	0.028233
414	0.054709	0.05422	0.027411
415	0.05457	0.054071	0.026873
416	0.054625	0.054095	0.026664
417	0.054543	0.053959	0.026218
418	0.054423	0.053811	0.025718
419	0.054431	0.053815	0.025596
420	0.054503	0.05389	0.025704
421	0.054396	0.053772	0.025324
422	0.054144	0.053496	0.024657
423	0.053961	0.053302	0.024196
424	0.054057	0.053377	0.024287
425	0.054036	0.05339	0.024261
426	0.053926	0.053305	0.024125
427	0.053861	0.053237	0.024057
428	0.05379	0.053172	0.02393
429	0.053772	0.053145	0.023845
430	0.053673	0.053046	0.023584
431	0.053458	0.052846	0.023133
432	0.053421	0.052847	0.023066
433	0.053488	0.052949	0.02322
434	0.053553	0.053009	0.023319
435	0.053593	0.053012	0.023286
436	0.053692	0.05309	0.023381
437	0.053819	0.053227	0.023627
438	0.05399	0.053394	0.023955
439	0.054124	0.053505	0.024251
440	0.054173	0.053518	0.024464
441	0.054167	0.053489	0.02456
442	0.054112	0.053414	0.02453
443	0.054035	0.05334	0.02448
444	0.053876	0.053205	0.024287
445	0.053791	0.053145	0.024258
446	0.053763	0.053142	0.024365
447	0.053784	0.053178	0.024569
448	0.053828	0.053232	0.024812
449	0.053894	0.05332	0.025134
450	0.053991	0.053432	0.025555
451	0.054122	0.053576	0.026096
452	0.054376	0.053836	0.026853
453	0.054701	0.054154	0.02772
454	0.054947	0.05439	0.028445
455	0.055075	0.054515	0.028909
456	0.055137	0.054577	0.029257
457	0.055314	0.054746	0.029763
458	0.055431	0.054845	0.03011
459	0.055482	0.054886	0.030343
460	0.055535	0.054918	0.030542
461	0.055514	0.054888	0.0306
462	0.055412	0.054796	0.030527
463	0.055335	0.054723	0.030503
464	0.055279	0.05467	0.030521
465	0.055247	0.054661	0.030589
466	0.055227	0.054663	0.030656
467	0.055288	0.054739	0.030836
468	0.055302	0.054759	0.03091
469	0.055254	0.054709	0.030862
470	0.055174	0.054634	0.030756
471	0.055243	0.054705	0.030872
472	0.055287	0.054752	0.030963
473	0.055303	0.054756	0.031001
474	0.055305	0.054745	0.031002
475	0.05527	0.054719	0.030974
476	0.055304	0.054759	0.031089
477	0.055397	0.054849	0.031321
478	0.055418	0.05488	0.031468
479	0.055367	0.054837	0.031521
480	0.055316	0.054785	0.03158
481	0.055342	0.054807	0.03177
482	0.055336	0.054794	0.031878
483	0.05527	0.054717	0.031839
484	0.05524	0.054679	0.031879
485	0.055317	0.054745	0.032103
486	0.055413	0.054833	0.032343
487	0.055487	0.054914	0.032566
488	0.055544	0.054989	0.032791
489	0.055643	0.055092	0.033111
490	0.055887	0.055326	0.033662
491	0.056115	0.055539	0.034215
492	0.056271	0.055684	0.034717
493	0.056404	0.055826	0.035269
494	0.056594	0.056017	0.035956
495	0.056838	0.056256	0.036769
496	0.057094	0.056508	0.03764
497	0.057363	0.056768	0.038584
498	0.057716	0.057111	0.039768
499	0.05812	0.057517	0.041107
500	0.058528	0.05795	0.042549
501	0.058952	0.058413	0.044159
502	0.059406	0.058897	0.04595
503	0.059988	0.059497	0.048055
504	0.060706	0.060238	0.050496
505	0.061416	0.060976	0.053096
506	0.062142	0.061736	0.055909
507	0.062969	0.062595	0.05907
508	0.063901	0.063532	0.062577
509	0.064897	0.064539	0.066405
510	0.065938	0.065595	0.070493
511	0.067065	0.066731	0.074916
512	0.068293	0.067969	0.079701
513	0.069642	0.069345	0.084856
514	0.071054	0.070793	0.090298
515	0.072541	0.072312	0.096026
516	0.074139	0.073944	0.10207
517	0.075932	0.075775	0.10852
518	0.077827	0.077718	0.11521
519	0.079749	0.079694	0.12202
520	0.081765	0.081754	0.12897
521	0.083895	0.083919	0.13607
522	0.08608	0.086141	0.14323
523	0.088255	0.088356	0.15029
524	0.090437	0.090566	0.15721
525	0.092641	0.09279	0.164
526	0.094809	0.09497	0.17057
527	0.096918	0.097097	0.17685
528	0.098913	0.099104	0.18274
529	0.10082	0.10101	0.18827
530	0.10261	0.10282	0.19343
531	0.10431	0.10454	0.19822
532	0.10585	0.10609	0.20255
533	0.1072	0.10746	0.2064
534	0.10845	0.10873	0.20987
535	0.10958	0.10987	0.21296
536	0.11054	0.11086	0.21564
537	0.11135	0.11169	0.21794
538	0.11207	0.11242	0.21994
539	0.11268	0.11304	0.22164
540	0.11315	0.11352	0.22303
541	0.11354	0.11393	0.22419
542	0.11389	0.1143	0.22521
543	0.1142	0.11462	0.22611
544	0.11446	0.1149	0.22691
545	0.11473	0.1152	0.22769
546	0.11498	0.11547	0.22841
547	0.11522	0.11575	0.22912
548	0.11547	0.11603	0.22984
549	0.11571	0.11631	0.23054
550	0.11591	0.11654	0.23117
551	0.11609	0.11675	0.23174
552	0.11623	0.11692	0.23224
553	0.11632	0.11703	0.23261
554	0.11632	0.11705	0.23278
555	0.11627	0.11702	0.23278
556	0.11612	0.11688	0.23254
557	0.11585	0.11661	0.23199
558	0.11549	0.11628	0.2312
559	0.11502	0.11582	0.23013
560	0.11441	0.11522	0.22872
561	0.1137	0.11453	0.22703
562	0.11289	0.11373	0.22508
563	0.11198	0.11283	0.22285
564	0.11097	0.11183	0.22033
565	0.10987	0.11072	0.21755
566	0.1087	0.10953	0.21456
567	0.10744	0.10827	0.21132
568	0.10612	0.10693	0.20786
569	0.10474	0.10554	0.20422
570	0.10331	0.10409	0.2004
571	0.10188	0.10263	0.1965
572	0.10043	0.10117	0.19252
573	0.098963	0.099686	0.18847
574	0.097532	0.09824	0.18447
575	0.096162	0.096849	0.18056
576	0.094855	0.095525	0.17679
577	0.093627	0.094276	0.17318
578	0.09247	0.093099	0.16973
579	0.091359	0.091962	0.16643
580	0.090329	0.090903	0.1633
581	0.089407	0.08995	0.16041
582	0.088519	0.089036	0.15766
583	0.087675	0.088168	0.15506
584	0.086898	0.087372	0.15262
585	0.086171	0.086623	0.15032
586	0.085461	0.085901	0.14811
587	0.084798	0.085233	0.14604
588	0.084161	0.084584	0.14407
589	0.083588	0.083997	0.14226
590	0.083089	0.083487	0.14064
591	0.082637	0.08303	0.13917
592	0.082216	0.082604	0.13782
593	0.081818	0.082199	0.13657
594	0.081483	0.081858	0.13548
595	0.08121	0.081581	0.13452
596	0.080925	0.081293	0.13359
597	0.080654	0.081016	0.13272
598	0.080411	0.080764	0.13189
599	0.080171	0.080513	0.13106
600	0.079922	0.080266	0.13023
601	0.079662	0.080006	0.12937
602	0.079388	0.079724	0.12847
603	0.079137	0.079467	0.1276
604	0.078868	0.079196	0.12668
605	0.078572	0.078905	0.12569
606	0.078253	0.078592	0.12463
607	0.077912	0.078248	0.12348
608	0.077548	0.077875	0.12223
609	0.077172	0.077482	0.1209
610	0.076798	0.077083	0.11951
611	0.076377	0.076636	0.11801
612	0.075947	0.076182	0.11643
613	0.075518	0.075735	0.11482
614	0.075058	0.075261	0.11314
615	0.074581	0.074765	0.11143
616	0.074102	0.074272	0.10973
617	0.073655	0.073812	0.10809
618	0.073203	0.073356	0.10646
619	0.072763	0.072921	0.1049
620	0.072339	0.072494	0.10339
621	0.071923	0.072069	0.10194
622	0.071545	0.071682	0.1006
623	0.071245	0.071369	0.099453
624	0.071009	0.071121	0.098468
625	0.070794	0.070896	0.097586
626	0.070635	0.070729	0.096859
627	0.07051	0.070602	0.096275
628	0.070388	0.070477	0.095768
629	0.070297	0.070378	0.095364
630	0.070266	0.070338	0.095101
631	0.070266	0.070331	0.094916
632	0.070224	0.070287	0.094676
633	0.070135	0.07019	0.094336
634	0.070004	0.070053	0.09387
635	0.069818	0.069866	0.093231
636	0.069588	0.069632	0.092404
637	0.069304	0.06934	0.091347
638	0.068953	0.068981	0.090027
639	0.068535	0.068555	0.088445
640	0.068029	0.068038	0.086576
641	0.067478	0.067475	0.0845
642	0.066913	0.06689	0.082259
643	0.066334	0.066289	0.079882
644	0.065762	0.06569	0.077443
645	0.065168	0.065068	0.07493
646	0.06455	0.064424	0.072371
647	0.063963	0.063805	0.069872
648	0.06342	0.063239	0.067503
649	0.062914	0.062718	0.065282
650	0.062471	0.062257	0.063266
651	0.062073	0.061839	0.061445
652	0.061718	0.061465	0.059823
653	0.061446	0.061172	0.058467
654	0.061213	0.060916	0.057289
655	0.061044	0.060727	0.056291
656	0.060934	0.060596	0.055439
657	0.060832	0.060469	0.054612
658	0.060737	0.060344	0.053766
659	0.060633	0.060217	0.052852
660	0.06049	0.060053	0.051813
661	0.060337	0.059872	0.050663
662	0.060154	0.05966	0.049381
663	0.059951	0.059428	0.047987
664	0.059742	0.059181	0.046516
665	0.059511	0.058909	0.044967
666	0.059282	0.058629	0.043389
667	0.059116	0.058402	0.041909
668	0.058984	0.058204	0.0405
669	0.058908	0.058054	0.039201
670	0.058923	0.057988	0.038075
671	0.059001	0.05798	0.037078
672	0.059141	0.058031	0.03621
673	0.059351	0.058152	0.035482
674	0.059604	0.058309	0.034848
675	0.059909	0.058513	0.034303
676	0.060319	0.058813	0.033908
677	0.0608	0.059176	0.033603
678	0.061328	0.059576	0.033355
679	0.061915	0.060026	0.033177
680	0.062572	0.060532	0.0331
681	0.063313	0.061116	0.033198
682	0.064115	0.06176	0.033462
683	0.065001	0.062492	0.033967
684	0.065971	0.063316	0.034808
685	0.066991	0.064201	0.036031
686	0.068052	0.065147	0.037699
687	0.069181	0.066192	0.039981
688	0.070391	0.067354	0.04302
689	0.071698	0.068644	0.046926
690	0.073174	0.070133	0.051907
691	0.074824	0.07183	0.058037
692	0.076702	0.073789	0.065419
693	0.078886	0.076084	0.074172
694	0.081448	0.078777	0.084339
695	0.084432	0.081911	0.095876
696	0.087864	0.085499	0.10868
697	0.091806	0.089601	0.12267
698	0.096247	0.094208	0.13767
699	0.10121	0.099336	0.15354
700	0.10667	0.10494	0.17001
701	0.11255	0.11098	0.18689
702	0.11881	0.11738	0.20398
703	0.12535	0.12406	0.22104
704	0.13214	0.13096	0.23796
705	0.1391	0.13802	0.25461
706	0.14615	0.14515	0.27086
707	0.15327	0.15233	0.28668
708	0.16043	0.15953	0.30205
709	0.16759	0.16671	0.31694
710	0.17472	0.17384	0.33135
711	0.18184	0.18093	0.34533
712	0.18894	0.18798	0.35892
713	0.19605	0.19503	0.37219
714	0.20315	0.20205	0.3851
715	0.21022	0.20902	0.39768
716	0.21726	0.21594	0.40996
717	0.22427	0.22282	0.42192
718	0.23123	0.22962	0.43357
719	0.23812	0.23635	0.44492
720	0.24493	0.24298	0.45595
721	0.25164	0.2495	0.46665
722	0.25825	0.25591	0.47702
723	0.26472	0.26218	0.48704
724	0.27103	0.26827	0.49667
725	0.27718	0.2742	0.50595
726	0.28314	0.27994	0.51485
727	0.28892	0.28549	0.52335
728	0.29449	0.29084	0.53145
729	0.29984	0.29596	0.53912
730	0.30496	0.30086	0.54639
731	0.30986	0.30553	0.55325
732	0.31453	0.30998	0.55974
733	0.31896	0.31419	0.56585
734	0.32314	0.31817	0.57156
735	0.32709	0.32192	0.57691
736	0.3308	0.32545	0.58192
737	0.33427	0.32875	0.58656
738	0.33751	0.33181	0.59086
739	0.34053	0.33467	0.59487
740	0.34333	0.33733	0.59857
741	0.3459	0.33978	0.60195
742	0.34826	0.34202	0.60505
743	0.35041	0.34406	0.60786
744	0.35235	0.34592	0.61041
745	0.35411	0.34761	0.61272
746	0.35567	0.34913	0.61479
747	0.35705	0.35048	0.61663
748	0.35825	0.35168	0.61825
749	0.3593	0.35274	0.6197
750	0.36021	0.35366	0.62096
751	0.36096	0.35444	0.62204
752	0.36159	0.35511	0.62296
753	0.36212	0.35568	0.62375
754	0.36255	0.35617	0.62442
755	0.36289	0.35657	0.62497
756	0.36316	0.35689	0.62544
757	0.36336	0.35716	0.62584
758	0.36352	0.35738	0.62617
759	0.36364	0.35756	0.62644
760	0.36371	0.3577	0.62665
761	0.36376	0.35781	0.6268
762	0.36378	0.3579	0.62693
763	0.36376	0.35796	0.627
764	0.3637	0.35798	0.62702
765	0.36361	0.35795	0.62699
766	0.3635	0.35791	0.62691
767	0.36335	0.35784	0.62681
768	0.36318	0.35775	0.62668
769	0.36301	0.35765	0.62654
770	0.36282	0.35754	0.62639
771	0.36261	0.3574	0.62622
772	0.36242	0.35727	0.62606
773	0.36224	0.35716	0.6259
774	0.36206	0.35704	0.62575
775	0.36189	0.35693	0.6256
776	0.36173	0.35682	0.62548
777	0.36158	0.35672	0.62537
778	0.36144	0.35663	0.62525
779	0.36132	0.35654	0.62514
780	0.3612	0.35646	0.62504
781	0.3611	0.35639	0.62494
782	0.361	0.35633	0.62487
783	0.36092	0.35628	0.62482
784	0.36084	0.35622	0.62476
785	0.36075	0.35616	0.62468
786	0.3607	0.35613	0.62463
787	0.36065	0.35611	0.62457
788	0.36061	0.35609	0.62451
789	0.3606	0.3561	0.62449
790	0.3606	0.35611	0.62448
791	0.36061	0.35614	0.62449
792	0.36062	0.35616	0.6245
793	0.36064	0.35617	0.62451
794	0.36066	0.3562	0.62453
795	0.36068	0.35623	0.62457
796	0.36072	0.35626	0.62463
797	0.36075	0.3563	0.62468
798	0.36078	0.35633	0.62471
799	0.36081	0.35636	0.62475
800	0.36084	0.35641	0.62479
801	0.36088	0.35646	0.62482
802	0.36092	0.3565	0.62483
803	0.36096	0.35655	0.62487
804	0.36102	0.35661	0.62492
805	0.36108	0.35668	0.62497
806	0.36113	0.35673	0.625
807	0.36119	0.35678	0.62503
808	0.36124	0.35684	0.62507
809	0.36129	0.35688	0.62511
810	0.36133	0.35692	0.62515
811	0.36138	0.35697	0.62518
812	0.36143	0.35701	0.62522
813	0.36149	0.35706	0.62526
814	0.36154	0.3571	0.62529
815	0.36157	0.35713	0.6253
816	0.36161	0.35716	0.6253
817	0.36167	0.35723	0.62532
818	0.36174	0.3573	0.62535
819	0.36182	0.35739	0.62537
820	0.36189	0.35747	0.62537
821	0.36195	0.35753	0.62537
822	0.36202	0.35761	0.62538
823	0.36207	0.35766	0.6254
824	0.36212	0.35772	0.62542
825	0.36218	0.35779	0.62543
826	0.36223	0.35784	0.62543
827	0.36227	0.35788	0.62541
828	0.3623	0.35791	0.62539
829	0.36234	0.35796	0.62539
830	0.36239	0.35801	0.62538
831	0.36245	0.35807	0.62537
832	0.36251	0.35813	0.62535
833	0.36257	0.35819	0.62532
834	0.36262	0.35824	0.62529
835	0.36268	0.3583	0.62528
836	0.36276	0.35838	0.62527
837	0.36282	0.35844	0.62525
838	0.36286	0.35849	0.62522
839	0.36289	0.35853	0.62519
840	0.36291	0.35855	0.62515
841	0.36293	0.35858	0.62509
842	0.36296	0.35862	0.62505
843	0.36297	0.35865	0.62504
844	0.36299	0.35867	0.62501
845	0.36302	0.3587	0.62497
846	0.36304	0.35874	0.62492
847	0.36307	0.35877	0.62486
848	0.36311	0.35881	0.6248
849	0.36316	0.35887	0.62475
850	0.3632	0.35892	0.62468
851	0.36321	0.35893	0.62458
852	0.36321	0.35893	0.62448
853	0.36323	0.35895	0.62442
854	0.36325	0.35897	0.62436
855	0.36326	0.35899	0.62429
856	0.36325	0.35899	0.62421
857	0.36323	0.35899	0.62414
858	0.36324	0.359	0.62407
859	0.36325	0.35901	0.62399
860	0.36328	0.35905	0.62391
861	0.3633	0.35907	0.62382
862	0.3633	0.35909	0.62373
863	0.3633	0.3591	0.62367
864	0.36328	0.35908	0.62358
865	0.36327	0.35908	0.6235
866	0.36328	0.3591	0.62344
867	0.36328	0.35911	0.62337
868	0.36328	0.35911	0.62329
869	0.36327	0.35909	0.6232
870	0.36326	0.35909	0.6231
871	0.36327	0.3591	0.62302
872	0.36328	0.35911	0.62293
873	0.3633	0.35912	0.62283
874	0.36331	0.35914	0.62276
875	0.36329	0.35913	0.62268
876	0.36327	0.35911	0.62262
877	0.36325	0.35909	0.62256
878	0.36325	0.35911	0.62246
879	0.36326	0.35914	0.62237
880	0.36325	0.35914	0.62227
881	0.36322	0.35911	0.62213
882	0.3632	0.3591	0.622
883	0.36319	0.35909	0.62189
884	0.36319	0.3591	0.62179
885	0.36318	0.35907	0.62168
886	0.36317	0.35905	0.62155
887	0.36317	0.35903	0.62144
888	0.36317	0.35904	0.62135
889	0.36319	0.35906	0.62126
890	0.36322	0.35909	0.62118
891	0.36325	0.35911	0.62108
892	0.36328	0.35915	0.62096
893	0.36329	0.35917	0.62085
894	0.36329	0.35917	0.62075
895	0.36328	0.35917	0.62063
896	0.3633	0.35919	0.62051
897	0.36332	0.3592	0.62041
898	0.36333	0.35919	0.6203
899	0.36329	0.35915	0.62015
900	0.36329	0.35914	0.62002
901	0.3633	0.35915	0.61989
902	0.36329	0.35914	0.61974
903	0.36327	0.35913	0.61958
904	0.36326	0.35911	0.61944
905	0.36325	0.35911	0.61931
906	0.36323	0.35911	0.61919
907	0.36324	0.35914	0.6191
908	0.36324	0.35915	0.61902
909	0.36323	0.35913	0.61892
910	0.36331	0.3592	0.61887
911	0.36337	0.35926	0.61883
912	0.36338	0.35929	0.61879
913	0.36337	0.35928	0.61871
914	0.36337	0.35928	0.61861
915	0.36336	0.35926	0.61849
916	0.36335	0.35923	0.61835
917	0.36332	0.35919	0.61821
918	0.36331	0.35917	0.61808
919	0.36331	0.35917	0.61797
920	0.36334	0.35921	0.6179
921	0.36336	0.35921	0.61778
922	0.36334	0.35917	0.61764
923	0.3633	0.35913	0.61751
924	0.36327	0.3591	0.61737
925	0.36321	0.35907	0.61726
926	0.36312	0.359	0.61713
927	0.36302	0.35892	0.61696
928	0.363	0.35889	0.61682
929	0.36297	0.35887	0.61668
930	0.36294	0.35884	0.61653
931	0.36292	0.3588	0.61641
932	0.36294	0.35882	0.61629
933	0.363	0.35887	0.61618
934	0.36305	0.35892	0.61606
935	0.36305	0.35891	0.61585
936	0.36297	0.35886	0.61566
937	0.36287	0.35878	0.61546
938	0.36277	0.35871	0.61526
939	0.36271	0.35867	0.61514
940	0.36261	0.35859	0.61497
941	0.3625	0.35849	0.61477
942	0.36245	0.35844	0.6146
943	0.36235	0.35832	0.61437
944	0.36225	0.3582	0.61416
945	0.36215	0.35809	0.61395
946	0.36206	0.358	0.61374
947	0.36199	0.35793	0.61353
948	0.36192	0.35785	0.61332
949	0.36184	0.35776	0.61311
950	0.36169	0.35762	0.61294
951	0.36158	0.35753	0.61278
952	0.36148	0.35744	0.61261
953	0.36134	0.3573	0.61243
954	0.3612	0.35715	0.61215
955	0.36111	0.35706	0.6119
956	0.36105	0.357	0.61168
957	0.36097	0.35692	0.61141
958	0.36089	0.35685	0.61114
959	0.3608	0.35676	0.61087
960	0.36071	0.35667	0.61065
961	0.36068	0.35665	0.61054
962	0.36057	0.35655	0.61031
963	0.36045	0.35645	0.61011
964	0.36034	0.35636	0.60996
965	0.36021	0.35623	0.60976
966	0.3601	0.35611	0.60957
967	0.36002	0.35602	0.60937
968	0.35999	0.35599	0.60918
969	0.36002	0.35602	0.60914
970	0.36008	0.35609	0.60913
971	0.36014	0.35616	0.60909
972	0.36019	0.35618	0.60902
973	0.36024	0.35622	0.609
974	0.36024	0.35624	0.60897
975	0.36019	0.35623	0.60891
976	0.36007	0.35615	0.6087
977	0.36	0.35611	0.60854
978	0.35995	0.35608	0.6084
979	0.35991	0.35604	0.60824
980	0.35996	0.35609	0.60813
981	0.36001	0.35613	0.60806
982	0.35999	0.3561	0.60799
983	0.35995	0.35604	0.60796
984	0.35995	0.35603	0.60792
985	0.35997	0.35598	0.6079
986	0.35999	0.35594	0.60787
987	0.36004	0.35597	0.60789
988	0.36005	0.35601	0.60791
989	0.36005	0.35605	0.60791
990	0.36011	0.35612	0.60796
991	0.36021	0.35623	0.60802
992	0.36033	0.35639	0.6081
993	0.36059	0.35669	0.60826
994	0.36085	0.35696	0.60839
995	0.36103	0.35713	0.60849
996	0.36119	0.35729	0.60849
997	0.36134	0.35742	0.60841
998	0.36149	0.35752	0.60842
999	0.36155	0.35752	0.60849
1000	0.36159	0.35754	0.60856
1001	0.36163	0.35763	0.60869
1002	0.36167	0.35771	0.60894
1003	0.36171	0.35775	0.60915
1004	0.36175	0.35778	0.60937
1005	0.36181	0.3578	0.60964
1006	0.36189	0.35784	0.60987
1007	0.3621	0.35802	0.61008
1008	0.36227	0.35814	0.61014
1009	0.36239	0.35825	0.61005
1010	0.36254	0.35843	0.60986
1011	0.36264	0.35858	0.60965
1012	0.36269	0.3587	0.60953
1013	0.36274	0.35877	0.60949
1014	0.36285	0.35885	0.60952
1015	0.36299	0.35894	0.60962
1016	0.36313	0.359	0.60967
1017	0.36326	0.35901	0.60965
1018	0.36336	0.359	0.60968
1019	0.36347	0.35901	0.60978
1020	0.36359	0.35905	0.60983
1021	0.36367	0.35913	0.60982
1022	0.36367	0.35916	0.60978
1023	0.36362	0.3592	0.6097
1024	0.36354	0.35929	0.6097
